# time,x,y,theta,velocity
1.761334028447218418e+09,3.491926900632741582e+00,1.837912184490881062e-01,-2.420851132217747281e+00,8.530681521638421305e-01
1.761334028467163324e+09,3.477994392426767778e+00,1.739260023753853301e-01,-2.433042700761417265e+00,8.540820212485881191e-01
1.761334028486938238e+09,3.463927454296786834e+00,1.642193714417652106e-01,-2.445249074661554278e+00,8.550017637439101259e-01
1.761334028507564068e+09,3.449721324131063138e+00,1.546691628344341873e-01,-2.457468784915727511e+00,8.567704117466701241e-01
1.761334028527415991e+09,3.435372022989638285e+00,1.452737694296195869e-01,-2.469706745270672688e+00,8.583748602419234430e-01
1.761334028548098803e+09,3.420883722054049336e+00,1.360371602773173816e-01,-2.481965996616669390e+00,8.598303533473371507e-01
1.761334028567472696e+09,3.406265501370925097e+00,1.269548302706061393e-01,-2.494133007430437754e+00,8.611507199319761163e-01
1.761334028588116169e+09,3.391563929293048396e+00,1.179597171990160176e-01,-2.505451847924719644e+00,8.623485050065646806e-01
1.761334028606882572e+09,3.376771793919377984e+00,1.090699523319327569e-01,-2.516397844647666027e+00,8.634350889156079401e-01
1.761334028627484322e+09,3.361873394748813304e+00,1.002975338196871735e-01,-2.527204141162256334e+00,8.654712897536755989e-01
1.761334028646717310e+09,3.346857726973515579e+00,9.164937785472382359e-02,-2.537965891790186834e+00,8.673184517472283250e-01
1.761334028668215513e+09,3.331725575742709999e+00,8.313467904737642522e-02,-2.548721606739497769e+00,8.689941250730794930e-01
1.761334028687487602e+09,3.316478840461540400e+00,7.476036210160205697e-02,-2.559485653471925470e+00,8.705142305672212144e-01
1.761334028708329678e+09,3.301120043853855268e+00,6.653185985465924490e-02,-2.570263050244011360e+00,8.718932109911926576e-01
1.761334028727273226e+09,3.285641718656778565e+00,5.844816113322880841e-02,-2.581054615572843769e+00,8.742966806483449815e-01
1.761334028748724937e+09,3.270037677036954360e+00,5.050835093733990061e-02,-2.591866702245451126e+00,8.764770145920055544e-01
1.761334028767351866e+09,3.254312637171472122e+00,4.271690083830601004e-02,-2.602703069027307858e+00,8.784549285181214584e-01
1.761334028788167000e+09,3.238471125611277923e+00,3.507787657725690289e-02,-2.613563615809543883e+00,8.802492148981954090e-01
1.761334028806839228e+09,3.222517482428638225e+00,2.759499342754897014e-02,-2.624446929839947984e+00,8.818769215295154673e-01
1.761334028827476978e+09,3.206455871343937947e+00,2.027165755260171634e-02,-2.635351227229457027e+00,8.833535135089596313e-01
1.761334028846757889e+09,3.190301152213073976e+00,1.305538756468865857e-02,-2.645676876456788396e+00,8.859369869559982069e-01
1.761334028867346525e+09,3.174059113880689509e+00,5.914645960379874209e-03,-2.655386192452059202e+00,8.882806133181457842e-01
1.761334028886730671e+09,3.157725362839308492e+00,-1.127325601590675047e-03,-2.664863786651916033e+00,8.904066597583170095e-01
1.761334028908100605e+09,3.141298875588147688e+00,-8.055116669131393708e-03,-2.674258839634506835e+00,8.923353261783443235e-01
1.761334028927369595e+09,3.124780555498530177e+00,-1.485811493626710937e-02,-2.683629768796560455e+00,8.940849371414243407e-01
1.761334028948083162e+09,3.108172393791881039e+00,-2.152873237907049209e-02,-2.692999545210251533e+00,8.956721159766770635e-01
1.761334028967998505e+09,3.091464469587839048e+00,-2.806625858707231108e-02,-2.702376498191626730e+00,8.984397606849300333e-01
1.761334028987502337e+09,3.074648566198875166e+00,-3.447055396715759806e-02,-2.711769894897441802e+00,9.009504600330325852e-01
1.761334029007154226e+09,3.057729759301063943e+00,-4.073697546069577485e-02,-2.721185068302005128e+00,9.032280685706333134e-01
1.761334029027636290e+09,3.040712929338143411e+00,-4.686150738509373137e-02,-2.730622787879779079e+00,9.052942262149058505e-01
1.761334029046725273e+09,3.023602739782079052e+00,-5.284062067326519146e-02,-2.740082136328401585e+00,9.071685638548071529e-01
1.761334029067352533e+09,3.006390161307202824e+00,-5.867577890079524183e-02,-2.749560863560487345e+00,9.102753352585165603e-01
1.761334029086856842e+09,2.989067467369557196e+00,-6.436806887700065316e-02,-2.759063731956008070e+00,9.130936771196439539e-01
1.761334029107338667e+09,2.971640918094934580e+00,-6.991380038863802271e-02,-2.768594039760587489e+00,9.156503669477720209e-01
1.761334029126970768e+09,2.954119191988987758e+00,-7.531884608835472117e-02,-2.778037379896494574e+00,9.179696962553380857e-01
1.761334029148003340e+09,2.936531736647450597e+00,-8.066021889839850023e-02,-2.786615455798634233e+00,9.200737013551174570e-01
1.761334029167334080e+09,2.918863378477508874e+00,-8.592388682457770266e-02,-2.794792851347245310e+00,9.234641641024939895e-01
1.761334029188293934e+09,2.901100508961535596e+00,-9.109536519721919690e-02,-2.802817659001868744e+00,9.265398596873430925e-01
1.761334029207471371e+09,2.883246414584205386e+00,-9.616166439618191453e-02,-2.810791689085693434e+00,9.293300107774796759e-01
1.761334029228474379e+09,2.865305088783464349e+00,-1.011135895888584935e-01,-2.818755890384555318e+00,9.318611270375343203e-01
1.761334029246730089e+09,2.847280823794363869e+00,-1.059443947186545082e-01,-2.826726576955917558e+00,9.341572570014495813e-01
1.761334029267258406e+09,2.829177976468197908e+00,-1.106489576368354238e-01,-2.834709937474402697e+00,9.362402165613852301e-01
1.761334029287082911e+09,2.810985577933891033e+00,-1.152271438845939577e-01,-2.842706986093683330e+00,9.396852458374442829e-01
1.761334029307252645e+09,2.792694258379532002e+00,-1.196789630518798053e-01,-2.850723631018588389e+00,9.428104420491557613e-01
1.761334029327388287e+09,2.774310579849764924e+00,-1.240007315274734151e-01,-2.858763811103289587e+00,9.456454981775812563e-01
1.761334029349475145e+09,2.755840655898481817e+00,-1.281891777830098944e-01,-2.866827698006666925e+00,9.482173505371874755e-01
1.761334029367111921e+09,2.737290183859599324e+00,-1.322413767675601759e-01,-2.874914072900468298e+00,9.505504347020098388e-01
1.761334029387488842e+09,2.718659793309918804e+00,-1.362124775300380952e-01,-2.882414310803975255e+00,9.542956824016939343e-01
1.761334029407441854e+09,2.699946586020638861e+00,-1.401369508970677358e-01,-2.889260616569385043e+00,9.576932250595501239e-01
1.761334029427833557e+09,2.681152902370045776e+00,-1.439922679167305597e-01,-2.895841590223276807e+00,9.607753432630874446e-01
1.761334029446749210e+09,2.662282275706744805e+00,-1.477635890530829277e-01,-2.902318309186683098e+00,9.635713207024317883e-01
1.761334029467896461e+09,2.643338797266902684e+00,-1.514407971654338769e-01,-2.908758141059910596e+00,9.661077223992748930e-01
1.761334029487238169e+09,2.624318345569693012e+00,-1.550183605594300795e-01,-2.915189026878212353e+00,9.692542474747178893e-01
1.761334029507238388e+09,2.605217763257373420e+00,-1.584924506237567199e-01,-2.921625098995617620e+00,9.721086523165481941e-01
1.761334029527030468e+09,2.586042655260942791e+00,-1.618587786656505989e-01,-2.928073085570050527e+00,9.746980570744038230e-01
1.761334029547398806e+09,2.566798306125070095e+00,-1.651139405791056392e-01,-2.934535181977747431e+00,9.770470640904183046e-01
1.761334029566874027e+09,2.547489668729058021e+00,-1.682551634328652845e-01,-2.941011657449372318e+00,9.791779916499456782e-01
1.761334029587369680e+09,2.528121369349227709e+00,-1.712801385344417393e-01,-2.947501971731997017e+00,9.811110860311014203e-01
1.761334029607289791e+09,2.508697721628925237e+00,-1.741869089115636038e-01,-2.954005262385593689e+00,9.828647138678376916e-01
1.761334029629494905e+09,2.489222745081187238e+00,-1.769737917326808241e-01,-2.960520561546896801e+00,9.844555366542233621e-01
1.761334029646734953e+09,2.469700185536447989e+00,-1.796393235497651397e-01,-2.967046893807812058e+00,9.858986690479207837e-01
1.761334029668738365e+09,2.450133536013256119e+00,-1.821822206860001236e-01,-2.973583320417034326e+00,9.872078224769275101e-01
1.761334029687278271e+09,2.430527243606338761e+00,-1.846110720344849576e-01,-2.980013686660969885e+00,9.883954354140115361e-01
1.761334029707761049e+09,2.410894381528041475e+00,-1.870093805264218811e-01,-2.985533121518296529e+00,9.894727915565987297e-01
1.761334029726988792e+09,2.391235282983814159e+00,-1.893617239640377758e-01,-2.990598832243181349e+00,9.904501270349576059e-01
1.761334029747848749e+09,2.371550111228700963e+00,-1.916520357408942610e-01,-2.995467171007898166e+00,9.913367276672845341e-01
1.761334029766718626e+09,2.351839663842121286e+00,-1.938700865526153116e-01,-3.000248954711211891e+00,9.921410171857232285e-01
1.761334029787326574e+09,2.332105076613227190e+00,-1.960092084557984171e-01,-3.004992663638887507e+00,9.928706372715704331e-01
1.761334029806755781e+09,2.312347650951798173e+00,-1.980649682869524419e-01,-3.009719836279492799e+00,9.935325201600916367e-01
1.761334029828165770e+09,2.292568752858924697e+00,-2.000343658400237645e-01,-3.014440220779716295e+00,9.941329545047801197e-01
1.761334029847423553e+09,2.272769754099105644e+00,-2.019153352113320088e-01,-3.019158316879739345e+00,9.946776451268432018e-01
1.761334029867502928e+09,2.252951998663204503e+00,-2.037064279695111613e-01,-3.023876234856001766e+00,9.951717672176062512e-01
1.761334029887336969e+09,2.233116784544959987e+00,-2.054066086472951524e-01,-3.028594966152639678e+00,9.956200155088202886e-01
1.761334029908131123e+09,2.213265354817614217e+00,-2.070151211759253262e-01,-3.033314961181591940e+00,9.960266488780469274e-01
1.761334029927440166e+09,2.193398894328375981e+00,-2.085314008540237185e-01,-3.038036400014381577e+00,9.963955308129245347e-01
1.761334029947983503e+09,2.173518529733396765e+00,-2.099550158816880230e-01,-3.042759323898180934e+00,9.967301661187722983e-01
1.761334029966755867e+09,2.153625331458596914e+00,-2.112856282521489437e-01,-3.047483701821513957e+00,9.970337342182969964e-01
1.761334029987624884e+09,2.133723850733739713e+00,-2.125789275921503019e-01,-3.051593310034738771e+00,9.973091193597888315e-01
1.761334030007147074e+09,2.113816969588706129e+00,-2.138700862219073406e-01,-3.055000978640339149e+00,9.975589380208181867e-01
1.761334030027381897e+09,2.093903906860120845e+00,-2.151393076411745597e-01,-3.058100490568549823e+00,9.977855637678008094e-01
1.761334030047230721e+09,2.073984367311560550e+00,-2.163743392628614259e-01,-3.061062682032975157e+00,9.979911498076258214e-01
1.761334030068468094e+09,2.054058346209525432e+00,-2.175674195087432816e-01,-3.063962427297556967e+00,9.981776494456136017e-01
1.761334030087429047e+09,2.034126009232836374e+00,-2.187135473527520302e-01,-3.066833026364227610e+00,9.983468346441763952e-01
1.761334030108065844e+09,2.014187619091686976e+00,-2.198094602254051788e-01,-3.069689594665879540e+00,9.985003128585128174e-01
1.761334030127089262e+09,1.994243490680025710e+00,-2.208530097505763123e-01,-3.072539182725328999e+00,9.986395423092921941e-01
1.761334030147371531e+09,1.974293963731991619e+00,-2.218427706041393166e-01,-3.075385193535291606e+00,9.987658458374386594e-01
1.761334030167086840e+09,1.954339386300194548e+00,-2.227777908504169901e-01,-3.078229335933631017e+00,9.988804234726512687e-01
1.761334030188448668e+09,1.934380104962877489e+00,-2.236574304911727318e-01,-3.081072504473489015e+00,9.989843638350748289e-01
1.761334030207197189e+09,1.914416459222559430e+00,-2.244812561138283535e-01,-3.083915185934318348e+00,9.990786544784512335e-01
1.761334030228281498e+09,1.894448778508469822e+00,-2.252489717164947169e-01,-3.086757653473722218e+00,9.991641912730229169e-01
1.761334030247119665e+09,1.874477380783722502e+00,-2.259603730868391946e-01,-3.089600063199974933e+00,9.992417869173372269e-01
1.761334030267423391e+09,1.854502572127205040e+00,-2.266153176163993033e-01,-3.092442504460246155e+00,9.993121786598230250e-01
1.761334030287426472e+09,1.834524646893219035e+00,-2.272137042750789204e-01,-3.095285027290214597e+00,9.993760353035041621e-01
1.761334030307248831e+09,1.814543888199709354e+00,-2.277554602940732309e-01,-3.098127658069797175e+00,9.994339635604021499e-01
1.761334030326780796e+09,1.794560568589796512e+00,-2.282405322880662057e-01,-3.100970408789995858e+00,9.994865138160029527e-01
1.761334030347501040e+09,1.774574950770918313e+00,-2.286688803202708009e-01,-3.103813282696720854e+00,9.995341853585553160e-01
1.761334030366626024e+09,1.754587288373635090e+00,-2.290404739213346696e-01,-3.106656277796441934e+00,9.995774311228878828e-01
1.761334030387518406e+09,1.734597826695968736e+00,-2.293552894074963877e-01,-3.109499389059053875e+00,9.996166619938136044e-01
1.761334030406741619e+09,1.714606803414075342e+00,-2.296133080641828972e-01,-3.112342609807981386e+00,9.996522507100116250e-01
1.761334030427855730e+09,1.694614449249335797e+00,-2.298145149072769733e-01,-3.115185932594962459e+00,9.996845354054754162e-01
1.761334030446774483e+09,1.674620988587645520e+00,-2.299588978309741460e-01,-3.118029349744817491e+00,9.997138228221778000e-01
1.761334030468044043e+09,1.654626683212672811e+00,-2.300562667767280245e-01,-3.120757147341499227e+00,9.997403912244741120e-01
1.761334030486823797e+09,1.634632094422453497e+00,-2.301919823848407320e-01,-3.122559835996649102e+00,9.997644930429361310e-01
1.761334030507574797e+09,1.614637220373950743e+00,-2.303513984225606104e-01,-3.123895742816738874e+00,9.997863572727342385e-01
1.761334030526948452e+09,1.594641997781257148e+00,-2.305191141556978129e-01,-3.125024676554942094e+00,9.998061916493568013e-01
1.761334030547468901e+09,1.574646386594877656e+00,-2.306855082525728073e-01,-3.126060109474223303e+00,9.998241846223376861e-01
1.761334030566824436e+09,1.554650372297035066e+00,-2.308444527556449966e-01,-3.127052202702169659e+00,9.998405071457449056e-01
1.761334030587172508e+09,1.534653959818454982e+00,-2.309919915487893272e-01,-3.128023519512204587e+00,9.998553143024423440e-01
1.761334030606811047e+09,1.514657167071853383e+00,-2.311255469687004405e-01,-3.128984458009680836e+00,9.998687467775562165e-01
1.761334030627683401e+09,1.494660019931302930e+00,-2.312434290912757096e-01,-3.129939966355433700e+00,9.998809321951465101e-01
1.761334030646811008e+09,1.474662548743306711e+00,-2.313445254380504246e-01,-3.130892495041614154e+00,9.998919863307835776e-01
1.761334030667374372e+09,1.454664786041713231e+00,-2.314281016636910715e-01,-3.131843314490970975e+00,9.999020142115498944e-01
1.761334030686807394e+09,1.434666765113942644e+00,-2.314936721411958997e-01,-3.132793115742146917e+00,9.999111111139188379e-01
1.761334030707251310e+09,1.414668519137887825e+00,-2.315409153196933967e-01,-3.133742292305814914e+00,9.999193634689915733e-01
1.761334030727319956e+09,1.394670080688657166e+00,-2.315696180979733010e-01,-3.134691077384389235e+00,9.999268496836922759e-01
1.761334030747250557e+09,1.374671481478854762e+00,-2.315796391510619445e-01,-3.135639613668849357e+00,9.999336408857251168e-01
1.761334030766598463e+09,1.354672752242787270e+00,-2.315708847019335437e-01,-3.136587990578726171e+00,9.999398015993694600e-01
1.761334030787492275e+09,1.334673922706974825e+00,-2.315432924932757097e-01,-3.137536265097339072e+00,9.999453903585351355e-01
1.761334030807166100e+09,1.314675021610562489e+00,-2.314968211744271864e-01,-3.138484473940504671e+00,9.999504602629025740e-01
1.761334030827343941e+09,1.294676076753002114e+00,-2.314314432696620849e-01,-3.139432640922019235e+00,9.999550594824311300e-01
1.761334030846809387e+09,1.274677115055179000e+00,-2.313471405172907447e-01,-3.140380781536753041e+00,9.999592317150294285e-01
1.761334030867687225e+09,1.254678162625705307e+00,-2.312439007792140011e-01,-3.141328905870605315e+00,9.999630166017358102e-01
1.761334030886754513e+09,1.234679244827567857e+00,-2.311217159912053731e-01,3.140908286705184960e+00,9.999664501033548314e-01
1.761334030907341957e+09,1.214680386342444240e+00,-2.309805808030817864e-01,3.139960177597431734e+00,9.999695648421256244e-01
1.761334030927045345e+09,1.194681611231297902e+00,-2.308204916762960912e-01,3.139012071271560789e+00,9.999723904116714079e-01
1.761334030948370934e+09,1.174682942990635581e+00,-2.306414462848732916e-01,3.138063966009891015e+00,9.999749536581731268e-01
1.761334030967717886e+09,1.154684404604256365e+00,-2.304434431175468867e-01,3.137115860746744644e+00,9.999772789354394176e-01
1.761334030987357855e+09,1.134686018590583823e+00,-2.302264812133706096e-01,3.136167754841492350e+00,9.999793883362952940e-01
1.761334031006882191e+09,1.114687807045795731e+00,-2.299905599858959870e-01,3.135219647929014197e+00,9.999813019024904603e-01
1.761334031027288198e+09,1.094689791683040481e+00,-2.297356791061332115e-01,3.134271539821248620e+00,9.999830378151183252e-01
1.761334031047079802e+09,1.074691993868043260e+00,-2.294618384245405152e-01,3.133323430442485513e+00,9.999846125673581554e-01
1.761334031068155527e+09,1.054694434651410884e+00,-2.291690379189388893e-01,3.132375319786949053e+00,9.999860411211787259e-01
1.761334031087036610e+09,1.034697134797928575e+00,-2.288572776596574931e-01,3.131427207891104292e+00,9.999873370494947178e-01
1.761334031108261824e+09,1.014700114813120502e+00,-2.285265577861414488e-01,3.130479094815683094e+00,9.999885126651250067e-01
1.761334031127285242e+09,9.947033949673314002e-01,-2.281768784911918091e-01,3.129530980634112947e+00,9.999895791377787502e-01
1.761334031147284746e+09,9.747069953175584445e-01,-2.278082400102952043e-01,3.128582865425161064e+00,9.999905466001804966e-01
1.761334031166880369e+09,9.547109357272436370e-01,-2.274206426143540738e-01,3.127634749268343395e+00,9.999914242443427304e-01
1.761334031187586308e+09,9.347152358842206743e-01,-2.270140866046939654e-01,3.126686632241138408e+00,9.999922204089006783e-01
1.761334031207166672e+09,9.147199153169863761e-01,-2.265885723096012494e-01,3.125738514417375935e+00,9.999929426583392678e-01
1.761334031227451324e+09,8.947249934094568813e-01,-2.261441000818932567e-01,3.124790395866382298e+00,9.999935978548640803e-01
1.761334031247195005e+09,8.747304894143476117e-01,-2.256806702971889123e-01,3.123842276652605054e+00,9.999941922236003089e-01
1.761334031268097639e+09,8.547364224653083431e-01,-2.251982833526579575e-01,3.122894156835541946e+00,9.999947314117390018e-01
1.761334031287112713e+09,8.347428115879274024e-01,-2.246969396660997431e-01,3.121946036469853247e+00,9.999952205421913654e-01
1.761334031308450222e+09,8.147496757097122400e-01,-2.241766396752520873e-01,3.120997915605578488e+00,9.999956642622629399e-01
1.761334031327054024e+09,7.947570336691409665e-01,-2.236373838372617828e-01,3.120049794288412226e+00,9.999960667878078358e-01
1.761334031347461939e+09,7.747649042238711203e-01,-2.230791726282716769e-01,3.119101672560007366e+00,9.999964319432846915e-01
1.761334031366679668e+09,7.547733060581851561e-01,-2.225020065430921012e-01,3.118153550458282020e+00,9.999967631980931637e-01
1.761334031387506962e+09,7.347822577897424878e-01,-2.219058860949353340e-01,3.117205428017721935e+00,9.999970636995373363e-01
1.761334031406821012e+09,7.147917779757031465e-01,-2.212908118151977466e-01,3.116257305269670042e+00,9.999973363027286899e-01
1.761334031427904844e+09,6.948018851182816702e-01,-2.206567842532788926e-01,3.115309182242596453e+00,9.999975835977129579e-01
1.761334031446883440e+09,6.748125976697836315e-01,-2.200038039764296294e-01,3.114361058962355600e+00,9.999978079340788861e-01
1.761334031468341112e+09,6.548239340371728723e-01,-2.193318715696237764e-01,3.113412935452418040e+00,9.999980114432814871e-01
1.761334031487389326e+09,6.348359125862139685e-01,-2.186409876354487580e-01,3.112464811734085401e+00,9.999981960588936181e-01
1.761334031508258343e+09,6.148485516452278921e-01,-2.179311527940122062e-01,3.111516687826690664e+00,9.999983635349775080e-01
1.761334031527025461e+09,5.948618695084978425e-01,-2.172023676828619965e-01,3.110568563747776683e+00,9.999985154627496486e-01
1.761334031548152924e+09,5.748758844393575540e-01,-2.164546329569173311e-01,3.109620439513260504e+00,9.999986532856997012e-01
1.761334031566917896e+09,5.548906146729911670e-01,-2.156879492884095917e-01,3.108672315137583464e+00,9.999987783133051922e-01
