# time,x,y,theta,velocity
1.761481656681793690e+09,-1.267964482307434082e+00,-1.036466583609580994e-01,2.983269929885864258e+00,1.964207768440246582e+00
1.761481656701612473e+09,-1.304132580757141113e+00,-9.852197766304016113e-02,2.975454330444335938e+00,1.960936903953552246e+00
1.761481656721871138e+09,-1.358342766761779785e+00,-9.597980976104736328e-02,2.973157167434692383e+00,1.957057595252990723e+00
1.761481656741253376e+09,-1.400862455368041992e+00,-8.867858350276947021e-02,2.967430353164672852e+00,1.957135200500488281e+00
1.761481656762012482e+09,-1.441813349723815918e+00,-8.362433314323425293e-02,2.961721420288085938e+00,1.958663225173950195e+00
1.761481656781392336e+09,-1.483596086502075195e+00,-7.112485170364379883e-02,2.949063539505004883e+00,1.958309412002563477e+00
1.761481656802779436e+09,-1.519562959671020508e+00,-6.296841800212860107e-02,2.941373825073242188e+00,1.958662152290344238e+00
1.761481656821341991e+09,-1.551671981811523438e+00,-5.774938315153121948e-02,2.924779891967773438e+00,1.960626125335693359e+00
1.761481656842265368e+09,-1.582140922546386719e+00,-5.203112587332725525e-02,2.916043996810913086e+00,1.961932897567749023e+00
1.761481656861481428e+09,-1.654205918312072754e+00,-5.043064802885055542e-02,2.905914783477783203e+00,1.958468198776245117e+00
1.761481656882023335e+09,-1.693544983863830566e+00,-4.249463230371475220e-02,2.891142368316650391e+00,1.958612084388732910e+00
1.761481656901268482e+09,-1.730262160301208496e+00,-3.557819128036499023e-02,2.879430532455444336e+00,1.956385970115661621e+00
1.761481656922853947e+09,-1.772909879684448242e+00,-2.474136650562286377e-02,2.862892150878906250e+00,1.952233552932739258e+00
1.761481656941947222e+09,-1.809330105781555176e+00,-1.757156848907470703e-02,2.847875118255615234e+00,1.952843546867370605e+00
1.761481656962334156e+09,-1.832512974739074707e+00,-1.006693951785564423e-02,2.835225343704223633e+00,1.953334689140319824e+00
1.761481656982374668e+09,-1.872053623199462891e+00,6.043062545359134674e-03,2.811488866806030273e+00,1.954324841499328613e+00
1.761481657001626015e+09,-1.901906609535217285e+00,1.541105099022388458e-02,2.788490772247314453e+00,1.955472111701965332e+00
1.761481657021927834e+09,-1.942449927330017090e+00,3.114752098917961121e-02,2.769322395324707031e+00,1.955978393554687500e+00
1.761481657042032003e+09,-1.963270187377929688e+00,4.249206930398941040e-02,2.749499320983886719e+00,1.956526398658752441e+00
1.761481657061374903e+09,-2.006463527679443359e+00,5.846625939011573792e-02,2.724997758865356445e+00,1.956881046295166016e+00
1.761481657082007647e+09,-2.035511970520019531e+00,7.844921201467514038e-02,2.698543071746826172e+00,1.951483488082885742e+00
1.761481657101448536e+09,-2.062562227249145508e+00,9.529406577348709106e-02,2.682076930999755859e+00,1.950976848602294922e+00
1.761481657121904135e+09,-2.109738588333129883e+00,1.062406226992607117e-01,2.651113271713256836e+00,1.946066021919250488e+00
1.761481657141663074e+09,-2.135300874710083008e+00,1.264436244964599609e-01,2.626689910888671875e+00,1.935213923454284668e+00
1.761481657162036896e+09,-2.165130853652954102e+00,1.419574767351150513e-01,2.606606245040893555e+00,1.930708765983581543e+00
1.761481657181391478e+09,-2.205026865005493164e+00,1.596040725708007812e-01,2.575022935867309570e+00,1.930227875709533691e+00
1.761481657202869654e+09,-2.238969326019287109e+00,1.750117689371109009e-01,2.556167840957641602e+00,1.922832369804382324e+00
1.761481657221944332e+09,-2.265859365463256836e+00,1.942812502384185791e-01,2.533006906509399414e+00,1.918646574020385742e+00
1.761481657242038250e+09,-2.288237571716308594e+00,2.117417305707931519e-01,2.515966892242431641e+00,1.916026592254638672e+00
1.761481657261468172e+09,-2.331292152404785156e+00,2.274411618709564209e-01,2.478548288345336914e+00,1.913799047470092773e+00
1.761481657282129049e+09,-2.353088617324829102e+00,2.352153658866882324e-01,2.467662334442138672e+00,1.908316612243652344e+00
1.761481657301321507e+09,-2.387767553329467773e+00,2.535274624824523926e-01,2.437411546707153320e+00,1.902922868728637695e+00
1.761481657322767019e+09,-2.423063993453979492e+00,2.720046639442443848e-01,2.410655021667480469e+00,1.900296092033386230e+00
1.761481657341936827e+09,-2.454349040985107422e+00,2.911588549613952637e-01,2.394963264465332031e+00,1.899244070053100586e+00
1.761481657362390041e+09,-2.475365400314331055e+00,3.111658394336700439e-01,2.382826089859008789e+00,1.897063136100769043e+00
1.761481657382299423e+09,-2.536729335784912109e+00,3.653602302074432373e-01,2.327971696853637695e+00,1.895573854446411133e+00
1.761481657401831865e+09,-2.569606304168701172e+00,4.061280786991119385e-01,2.294793844223022461e+00,1.893952846527099609e+00
1.761481657421433687e+09,-2.597938060760498047e+00,4.530139565467834473e-01,2.279080629348754883e+00,1.889634966850280762e+00
1.761481657441903830e+09,-2.627518653869628906e+00,4.918754994869232178e-01,2.249679327011108398e+00,1.884249806404113770e+00
1.761481657461540222e+09,-2.658789157867431641e+00,5.152277350425720215e-01,2.218431711196899414e+00,1.884135723114013672e+00
1.761481657481875658e+09,-2.686576604843139648e+00,5.310501456260681152e-01,2.202354669570922852e+00,1.883836984634399414e+00
1.761481657501379967e+09,-2.713980913162231445e+00,5.595613718032836914e-01,2.174713373184204102e+00,1.881924986839294434e+00
1.761481657521765232e+09,-2.725470781326293945e+00,5.835334658622741699e-01,2.145643949508666992e+00,1.878456711769104004e+00
1.761481657541437864e+09,-2.731414318084716797e+00,6.059849858283996582e-01,2.122471332550048828e+00,1.876274824142456055e+00
1.761481657561894894e+09,-2.737038135528564453e+00,6.370695233345031738e-01,2.093005180358886719e+00,1.873052835464477539e+00
1.761481657581830025e+09,-2.757881641387939453e+00,6.784120202064514160e-01,2.064878940582275391e+00,1.871195554733276367e+00
1.761481657602322817e+09,-2.774351119995117188e+00,7.323230504989624023e-01,2.036908864974975586e+00,1.871259093284606934e+00
1.761481657622903585e+09,-2.792187690734863281e+00,7.740008831024169922e-01,2.018289804458618164e+00,1.870955228805541992e+00
1.761481657643106699e+09,-2.804486751556396484e+00,7.922095656394958496e-01,2.003906488418579102e+00,1.869307756423950195e+00
1.761481657661772728e+09,-2.825486660003662109e+00,8.304112553596496582e-01,1.978581547737121582e+00,1.867268919944763184e+00
1.761481657682109833e+09,-2.838839054107666016e+00,8.550208806991577148e-01,1.957186937332153320e+00,1.864022374153137207e+00
1.761481657701340914e+09,-2.851308584213256836e+00,8.816860318183898926e-01,1.944349527359008789e+00,1.858811140060424805e+00
1.761481657722086430e+09,-2.872301578521728516e+00,9.155647158622741699e-01,1.914188265800476074e+00,1.857983708381652832e+00
1.761481657741301060e+09,-2.894654989242553711e+00,9.479496479034423828e-01,1.884526610374450684e+00,1.857285499572753906e+00
1.761481657762243032e+09,-2.909450769424438477e+00,9.749147295951843262e-01,1.863827705383300781e+00,1.854265928268432617e+00
1.761481657781229973e+09,-2.921174526214599609e+00,1.025284528732299805e+00,1.843475580215454102e+00,1.848640322685241699e+00
1.761481657802045345e+09,-2.932340621948242188e+00,1.063139438629150391e+00,1.829122424125671387e+00,1.845365524291992188e+00
1.761481657822129965e+09,-2.946805715560913086e+00,1.109540462493896484e+00,1.801577329635620117e+00,1.841985583305358887e+00
1.761481657842900991e+09,-2.955241918563842773e+00,1.146261692047119141e+00,1.784273505210876465e+00,1.839727878570556641e+00
1.761481657861699581e+09,-2.967272281646728516e+00,1.193472981452941895e+00,1.744746446609497070e+00,1.836547493934631348e+00
1.761481657882987976e+09,-2.974593877792358398e+00,1.230808854103088379e+00,1.727811217308044434e+00,1.833978295326232910e+00
1.761481657901382923e+09,-2.983199596405029297e+00,1.267956376075744629e+00,1.697369098663330078e+00,1.829424619674682617e+00
1.761481657921619654e+09,-2.988571882247924805e+00,1.306023597717285156e+00,1.675320029258728027e+00,1.823293328285217285e+00
1.761481657941519022e+09,-2.995329380035400391e+00,1.346024632453918457e+00,1.647710919380187988e+00,1.817142367362976074e+00
1.761481657961906195e+09,-3.001750946044921875e+00,1.387221574783325195e+00,1.623978257179260254e+00,1.811247944831848145e+00
1.761481657981503725e+09,-2.994825839996337891e+00,1.412860274314880371e+00,1.597181320190429688e+00,1.806993007659912109e+00
1.761481658002968788e+09,-2.985935688018798828e+00,1.439235687255859375e+00,1.566151976585388184e+00,1.804709553718566895e+00
1.761481658021506548e+09,-2.978769540786743164e+00,1.475070118904113770e+00,1.536428689956665039e+00,1.799983501434326172e+00
1.761481658041822672e+09,-2.971974849700927734e+00,1.498793601989746094e+00,1.518540978431701660e+00,1.792437195777893066e+00
1.761481658061502457e+09,-2.965103387832641602e+00,1.538113355636596680e+00,1.485273122787475586e+00,1.788188815116882324e+00
1.761481658083218098e+09,-2.958090066909790039e+00,1.567894458770751953e+00,1.467509388923645020e+00,1.781089544296264648e+00
1.761481658101243973e+09,-2.953288316726684570e+00,1.600634098052978516e+00,1.438740849494934082e+00,1.770225286483764648e+00
1.761481658122280359e+09,-2.947824716567993164e+00,1.642324209213256836e+00,1.416884064674377441e+00,1.765975594520568848e+00
1.761481658141195297e+09,-2.942644596099853516e+00,1.667983055114746094e+00,1.396216392517089844e+00,1.757831096649169922e+00
1.761481658162497759e+09,-2.939091444015502930e+00,1.694153904914855957e+00,1.372483134269714355e+00,1.752417564392089844e+00
1.761481658181091070e+09,-2.957794427871704102e+00,1.760414004325866699e+00,1.347821831703186035e+00,1.749511122703552246e+00
1.761481658201838017e+09,-2.967312097549438477e+00,1.811388254165649414e+00,1.325815081596374512e+00,1.741007685661315918e+00
1.761481658221279144e+09,-2.966577768325805664e+00,1.842687249183654785e+00,1.302399158477783203e+00,1.732796788215637207e+00
1.761481658242007494e+09,-2.960119724273681641e+00,1.876789569854736328e+00,1.285160064697265625e+00,1.729942798614501953e+00
1.761481658261629343e+09,-2.949367761611938477e+00,1.922573566436767578e+00,1.260974764823913574e+00,1.728080034255981445e+00
1.761481658282418013e+09,-2.936925649642944336e+00,1.952657341957092285e+00,1.241840362548828125e+00,1.724654674530029297e+00
1.761481658301377535e+09,-2.925041198730468750e+00,1.992349267005920410e+00,1.209335923194885254e+00,1.719704031944274902e+00
1.761481658321729183e+09,-2.906824111938476562e+00,2.015175819396972656e+00,1.185150265693664551e+00,1.717983245849609375e+00
1.761481658342086077e+09,-2.893252611160278320e+00,2.049004554748535156e+00,1.158731579780578613e+00,1.716576337814331055e+00
1.761481658361797094e+09,-2.883382081985473633e+00,2.081108808517456055e+00,1.126750707626342773e+00,1.712454676628112793e+00
1.761481658381559610e+09,-2.862326860427856445e+00,2.118118286132812500e+00,1.093771100044250488e+00,1.709979295730590820e+00
1.761481658403001308e+09,-2.844236135482788086e+00,2.148652791976928711e+00,1.066717743873596191e+00,1.706649184226989746e+00
1.761481658421491623e+09,-2.820661306381225586e+00,2.180958747863769531e+00,1.043880939483642578e+00,1.700448989868164062e+00
1.761481658441448689e+09,-2.799145936965942383e+00,2.203188657760620117e+00,1.023651838302612305e+00,1.697135448455810547e+00
1.761481658462228537e+09,-2.756960391998291016e+00,2.254277467727661133e+00,9.649903774261474609e-01,1.692225217819213867e+00
1.761481658482163191e+09,-2.731914997100830078e+00,2.279544115066528320e+00,9.420773983001708984e-01,1.688057661056518555e+00
1.761481658501285315e+09,-2.709035873413085938e+00,2.309462547302246094e+00,9.032930731773376465e-01,1.683925151824951172e+00
1.761481658522659779e+09,-2.680731058120727539e+00,2.331110954284667969e+00,8.861649036407470703e-01,1.679395794868469238e+00
1.761481658541286707e+09,-2.656366348266601562e+00,2.369043588638305664e+00,8.575218319892883301e-01,1.675530910491943359e+00
1.761481658562041998e+09,-2.640770196914672852e+00,2.388073921203613281e+00,8.338339328765869141e-01,1.674449801445007324e+00
1.761481658581399202e+09,-2.605745315551757812e+00,2.408698797225952148e+00,7.970247864723205566e-01,1.669845581054687500e+00
1.761481658602183819e+09,-2.579136371612548828e+00,2.423366308212280273e+00,7.788962721824645996e-01,1.666620731353759766e+00
1.761481658621352673e+09,-2.558218955993652344e+00,2.446506261825561523e+00,7.516837120056152344e-01,1.665953040122985840e+00
1.761481658641990423e+09,-2.531446218490600586e+00,2.464195013046264648e+00,7.362161278724670410e-01,1.662597537040710449e+00
1.761481658661542892e+09,-2.513360261917114258e+00,2.501255512237548828e+00,7.008905410766601562e-01,1.659816026687622070e+00
1.761481658681874037e+09,-2.500153779983520508e+00,2.528932332992553711e+00,6.796268224716186523e-01,1.655555367469787598e+00
1.761481658702482939e+09,-2.492063522338867188e+00,2.547350645065307617e+00,6.654304265975952148e-01,1.652676820755004883e+00
1.761481658721738338e+09,-2.467964172363281250e+00,2.569249391555786133e+00,6.382999420166015625e-01,1.652997970581054688e+00
1.761481658741949320e+09,-2.451107025146484375e+00,2.587635278701782227e+00,6.136552095413208008e-01,1.646843910217285156e+00
1.761481658761937857e+09,-2.433577299118041992e+00,2.611900806427001953e+00,5.957232117652893066e-01,1.647204518318176270e+00
1.761481658781471729e+09,-2.400713205337524414e+00,2.642424345016479492e+00,5.549762845039367676e-01,1.647491455078125000e+00
1.761481658802472353e+09,-2.380564212799072266e+00,2.663150787353515625e+00,5.409799218177795410e-01,1.648447275161743164e+00
1.761481658821684122e+09,-2.347588777542114258e+00,2.697892189025878906e+00,5.141208767890930176e-01,1.649050951004028320e+00
1.761481658841748714e+09,-2.332105875015258789e+00,2.733011960983276367e+00,4.974978864192962646e-01,1.649943113327026367e+00
1.761481658861988783e+09,-2.284381866455078125e+00,2.726829767227172852e+00,4.507169127464294434e-01,1.650325179100036621e+00
1.761481658881736755e+09,-2.242088079452514648e+00,2.736390352249145508e+00,4.251898825168609619e-01,1.651809692382812500e+00
1.761481658903291941e+09,-2.208256483078002930e+00,2.746539592742919922e+00,4.059001803398132324e-01,1.653354287147521973e+00
1.761481658922047377e+09,-2.162522554397583008e+00,2.749489307403564453e+00,3.642685413360595703e-01,1.655208826065063477e+00
1.761481658941587687e+09,-2.126334190368652344e+00,2.762047052383422852e+00,3.314900398254394531e-01,1.656665682792663574e+00
1.761481658961893559e+09,-2.098807096481323242e+00,2.771338701248168945e+00,3.102752268314361572e-01,1.659075856208801270e+00
1.761481658981845140e+09,-2.056776762008666992e+00,2.777808666229248047e+00,2.853749096393585205e-01,1.663161158561706543e+00
1.761481659002406120e+09,-2.013919353485107422e+00,2.782363414764404297e+00,2.807367742061614990e-01,1.667249321937561035e+00
1.761481659021282434e+09,-1.983732104301452637e+00,2.785831928253173828e+00,2.756168246269226074e-01,1.671459555625915527e+00
1.761481659042050362e+09,-1.956225156784057617e+00,2.786894321441650391e+00,2.721579074859619141e-01,1.676381826400756836e+00
1.761481659061164618e+09,-1.915780186653137207e+00,2.773234605789184570e+00,2.402834892272949219e-01,1.682855248451232910e+00
1.761481659082253933e+09,-1.879275321960449219e+00,2.774591922760009766e+00,2.223126888275146484e-01,1.686264276504516602e+00
1.761481659101471901e+09,-1.854861855506896973e+00,2.778244972229003906e+00,2.115518748760223389e-01,1.692418694496154785e+00
1.761481659122625113e+09,-1.817103505134582520e+00,2.785258054733276367e+00,1.938637942075729370e-01,1.696447014808654785e+00
1.761481659141420364e+09,-1.793302178382873535e+00,2.798898696899414062e+00,1.847458332777023315e-01,1.705426931381225586e+00
1.761481659162289143e+09,-1.757484197616577148e+00,2.808995962142944336e+00,1.816318929195404053e-01,1.711902976036071777e+00
1.761481659182394505e+09,-1.709455609321594238e+00,2.775801658630371094e+00,1.633590012788772583e-01,1.716706275939941406e+00
1.761481659202593088e+09,-1.672093391418457031e+00,2.777137756347656250e+00,1.491051167249679565e-01,1.728774309158325195e+00
1.761481659221642017e+09,-1.635807156562805176e+00,2.786787271499633789e+00,1.397102177143096924e-01,1.738314986228942871e+00
1.761481659241449594e+09,-1.608110666275024414e+00,2.794227361679077148e+00,1.336914002895355225e-01,1.742767930030822754e+00
1.761481659263070583e+09,-1.567304730415344238e+00,2.804956912994384766e+00,1.257282346487045288e-01,1.753294348716735840e+00
1.761481659282352209e+09,-1.534348487854003906e+00,2.814081668853759766e+00,1.209627836942672729e-01,1.763905882835388184e+00
1.761481659301785707e+09,-1.511219382286071777e+00,2.821518898010253906e+00,1.170784682035446167e-01,1.770095109939575195e+00
1.761481659321781635e+09,-1.479653716087341309e+00,2.820347785949707031e+00,1.106682494282722473e-01,1.779056549072265625e+00
1.761481659341744900e+09,-1.449574112892150879e+00,2.816557645797729492e+00,1.073504239320755005e-01,1.788420557975769043e+00
1.761481659361570597e+09,-1.414802193641662598e+00,2.814262151718139648e+00,1.051466837525367737e-01,1.799133777618408203e+00
1.761481659381895542e+09,-1.381938695907592773e+00,2.822010755538940430e+00,9.443658590316772461e-02,1.810541629791259766e+00
1.761481659402113676e+09,-1.348660469055175781e+00,2.833008050918579102e+00,8.760911226272583008e-02,1.822549581527709961e+00
1.761481659421329260e+09,-1.325655817985534668e+00,2.849835634231567383e+00,7.900240272283554077e-02,1.832238316535949707e+00
1.761481659442990541e+09,-1.290631771087646484e+00,2.865871191024780273e+00,7.058848440647125244e-02,1.841841220855712891e+00
1.761481659461071491e+09,-1.240654110908508301e+00,2.849619626998901367e+00,6.079126149415969849e-02,1.846739649772644043e+00
1.761481659482539415e+09,-1.197699546813964844e+00,2.843580007553100586e+00,5.764331296086311340e-02,1.856621026992797852e+00
1.761481659501284599e+09,-1.161086797714233398e+00,2.840768814086914062e+00,5.600830167531967163e-02,1.867439389228820801e+00
1.761481659522498131e+09,-1.124766945838928223e+00,2.838534593582153320e+00,5.031951144337654114e-02,1.875627517700195312e+00
1.761481659541425467e+09,-1.092359781265258789e+00,2.837119340896606445e+00,4.778967425227165222e-02,1.881109476089477539e+00
1.761481659562040329e+09,-1.052013278007507324e+00,2.835939645767211914e+00,4.570047929883003235e-02,1.885583877563476562e+00
1.761481659581224680e+09,-1.017327904701232910e+00,2.842345237731933594e+00,3.789788484573364258e-02,1.889113783836364746e+00
1.761481659602268457e+09,-9.793238043785095215e-01,2.851634979248046875e+00,3.112832456827163696e-02,1.892238855361938477e+00
1.761481659622177124e+09,-9.558083415031433105e-01,2.859334707260131836e+00,2.674541622400283813e-02,1.899096369743347168e+00
1.761481659641571760e+09,-9.284306764602661133e-01,2.867701530456542969e+00,2.337181568145751953e-02,1.904936790466308594e+00
1.761481659661320925e+09,-8.550385236740112305e-01,2.839698553085327148e+00,1.725537329912185669e-02,1.908772587776184082e+00
1.761481659682652950e+09,-8.113725781440734863e-01,2.831658840179443359e+00,1.472016796469688416e-02,1.913300633430480957e+00
1.761481659702083826e+09,-7.778479456901550293e-01,2.831247329711914062e+00,1.134750433266162872e-02,1.917693972587585449e+00
1.761481659721868277e+09,-7.184535264968872070e-01,2.819758653640747070e+00,-1.203637663275003433e-02,1.922843337059020996e+00
1.761481659741777420e+09,-6.724345684051513672e-01,2.823389291763305664e+00,-2.828832902014255524e-02,1.926917552947998047e+00
1.761481659761824846e+09,-6.375169754028320312e-01,2.825843095779418945e+00,-3.589039295911788940e-02,1.929447650909423828e+00
1.761481659781687975e+09,-5.941386222839355469e-01,2.822790384292602539e+00,-4.564809426665306091e-02,1.931730747222900391e+00
1.761481659801863909e+09,-5.659233927726745605e-01,2.822850942611694336e+00,-5.157839134335517883e-02,1.934270977973937988e+00
1.761481659821621180e+09,-5.265746116638183594e-01,2.825785875320434570e+00,-5.649638175964355469e-02,1.939589262008666992e+00
