# time,x,y,theta,velocity
1.761481657301321507e+09,3.669244766235351562e+00,4.058158099651336670e-01,-2.318223953247070312e+00,3.808070123195648193e-01
1.761481657322767019e+09,3.650235652923583984e+00,3.806005120277404785e-01,-2.334524869918823242e+00,3.828442692756652832e-01
1.761481657341936827e+09,3.632469654083251953e+00,3.632403910160064697e-01,-2.342295169830322266e+00,3.830650448799133301e-01
1.761481657362390041e+09,3.617239952087402344e+00,3.499330282211303711e-01,-2.347085952758789062e+00,3.848133981227874756e-01
1.761481657382299423e+09,3.601263523101806641e+00,3.404985666275024414e-01,-2.352147817611694336e+00,3.854220509529113770e-01
1.761481657401831865e+09,3.589217901229858398e+00,3.333627283573150635e-01,-2.355433940887451172e+00,3.861761987209320068e-01
1.761481657421433687e+09,3.580505609512329102e+00,3.268507719039916992e-01,-2.358525514602661133e+00,3.870834410190582275e-01
1.761481657441903830e+09,3.572414398193359375e+00,3.210419118404388428e-01,-2.361179351806640625e+00,3.887708187103271484e-01
1.761481657461540222e+09,3.566084623336791992e+00,3.175663650035858154e-01,-2.364727497100830078e+00,3.903878629207611084e-01
1.761481657481875658e+09,3.562588691711425781e+00,3.145416080951690674e-01,-2.366932153701782227e+00,3.907153308391571045e-01
1.761481657501379967e+09,3.560108900070190430e+00,3.106201291084289551e-01,-2.368584871292114258e+00,3.917683362960815430e-01
1.761481657521765232e+09,3.558203458786010742e+00,3.069322705268859863e-01,-2.373205900192260742e+00,3.929943740367889404e-01
1.761481657541437864e+09,3.555471420288085938e+00,3.014988601207733154e-01,-2.377694129943847656e+00,3.935824632644653320e-01
1.761481657561894894e+09,3.553155899047851562e+00,2.944554984569549561e-01,-2.381475448608398438e+00,3.949834108352661133e-01
1.761481657581830025e+09,3.551649332046508789e+00,2.876316308975219727e-01,-2.387817382812500000e+00,3.942507207393646240e-01
1.761481657602322817e+09,3.548636913299560547e+00,2.791714966297149658e-01,-2.393127679824829102e+00,3.945825397968292236e-01
1.761481657622903585e+09,3.546220779418945312e+00,2.721067368984222412e-01,-2.397967815399169922e+00,3.951635360717773438e-01
1.761481657643106699e+09,3.544354438781738281e+00,2.665926516056060791e-01,-2.400471448898315430e+00,3.953881859779357910e-01
1.761481657661772728e+09,3.539441823959350586e+00,2.729918360710144043e-01,-2.404340982437133789e+00,3.952012062072753906e-01
1.761481657682109833e+09,3.534583330154418945e+00,2.805362641811370850e-01,-2.405585289001464844e+00,3.934615254402160645e-01
1.761481657701340914e+09,3.529692411422729492e+00,2.855500876903533936e-01,-2.406645059585571289e+00,3.937589824199676514e-01
1.761481657722086430e+09,3.523102045059204102e+00,2.928965389728546143e-01,-2.408432960510253906e+00,3.944597542285919189e-01
1.761481657741301060e+09,3.516786813735961914e+00,2.976683676242828369e-01,-2.409013509750366211e+00,3.955956399440765381e-01
1.761481657762243032e+09,3.509640216827392578e+00,2.995781600475311279e-01,-2.408337593078613281e+00,3.954392969608306885e-01
1.761481657781229973e+09,3.500971794128417969e+00,2.993102967739105225e-01,-2.409833192825317383e+00,3.960931003093719482e-01
1.761481657802045345e+09,3.490454196929931641e+00,2.970562875270843506e-01,-2.411475658416748047e+00,3.903649747371673584e-01
1.761481657822129965e+09,3.483099699020385742e+00,2.935261428356170654e-01,-2.413132667541503906e+00,3.912554383277893066e-01
1.761481657842900991e+09,3.477323770523071289e+00,2.908498048782348633e-01,-2.414093732833862305e+00,3.932881951332092285e-01
1.761481657861699581e+09,3.470313072204589844e+00,2.752442061901092529e-01,-2.418775081634521484e+00,3.950650691986083984e-01
1.761481657882987976e+09,3.464411735534667969e+00,2.592160105705261230e-01,-2.422871112823486328e+00,3.964252173900604248e-01
1.761481657901382923e+09,3.457303762435913086e+00,2.431856691837310791e-01,-2.426252365112304688e+00,3.968852758407592773e-01
1.761481657921619654e+09,3.446688890457153320e+00,2.188081741333007812e-01,-2.432059288024902344e+00,3.971790373325347900e-01
1.761481657941519022e+09,3.444173812866210938e+00,2.010508179664611816e-01,-2.435383796691894531e+00,3.974797129631042480e-01
1.761481657961906195e+09,3.442771196365356445e+00,1.905912458896636963e-01,-2.437447786331176758e+00,3.977975547313690186e-01
1.761481657981503725e+09,3.439942359924316406e+00,2.128359526395797729e-01,-2.448173999786376953e+00,3.984256386756896973e-01
1.761481658002968788e+09,3.438415765762329102e+00,2.254706174135208130e-01,-2.455511331558227539e+00,3.991304039955139160e-01
1.761481658021506548e+09,3.439150094985961914e+00,2.301020771265029907e-01,-2.459542989730834961e+00,3.994798064231872559e-01
1.761481658041822672e+09,3.436303615570068359e+00,2.303134202957153320e-01,-2.462113618850708008e+00,4.001862406730651855e-01
1.761481658061502457e+09,3.428723573684692383e+00,2.280714213848114014e-01,-2.468691349029541016e+00,4.003237485885620117e-01
1.761481658083218098e+09,3.422870159149169922e+00,2.206832319498062134e-01,-2.475032806396484375e+00,3.964374661445617676e-01
1.761481658101243973e+09,3.413876056671142578e+00,2.104781717061996460e-01,-2.480943202972412109e+00,3.963630497455596924e-01
1.761481658122280359e+09,3.404356718063354492e+00,1.943209469318389893e-01,-2.489285469055175781e+00,3.976401388645172119e-01
1.761481658141195297e+09,3.396490097045898438e+00,1.769059449434280396e-01,-2.496517896652221680e+00,3.974572718143463135e-01
1.761481658162497759e+09,3.391644477844238281e+00,1.644124090671539307e-01,-2.501194238662719727e+00,3.987155854701995850e-01
1.761481658181091070e+09,3.382766008377075195e+00,1.536584496498107910e-01,-2.506038665771484375e+00,3.957658708095550537e-01
1.761481658201838017e+09,3.375775098800659180e+00,1.464438587427139282e-01,-2.509207010269165039e+00,3.972353339195251465e-01
1.761481658221279144e+09,3.367724418640136719e+00,1.414835900068283081e-01,-2.511299371719360352e+00,3.981208801269531250e-01
1.761481658242007494e+09,3.362931728363037109e+00,1.375638097524642944e-01,-2.512662887573242188e+00,3.991461694240570068e-01
1.761481658261629343e+09,3.359685420989990234e+00,1.346928477287292480e-01,-2.516110897064208984e+00,4.005102515220642090e-01
1.761481658282418013e+09,3.355656862258911133e+00,1.329665184020996094e-01,-2.518641233444213867e+00,4.010525345802307129e-01
1.761481658301377535e+09,3.351103782653808594e+00,1.301363706588745117e-01,-2.520747184753417969e+00,4.004200994968414307e-01
1.761481658321729183e+09,3.339415788650512695e+00,1.173510178923606873e-01,-2.535284042358398438e+00,4.009521305561065674e-01
1.761481658342086077e+09,3.327680349349975586e+00,1.032693684101104736e-01,-2.546206235885620117e+00,4.022684693336486816e-01
1.761481658361797094e+09,3.318502664566040039e+00,9.483382105827331543e-02,-2.552931308746337891e+00,4.000632762908935547e-01
1.761481658381559610e+09,3.310131788253784180e+00,9.327360987663269043e-02,-2.559437990188598633e+00,4.009906053543090820e-01
1.761481658403001308e+09,3.302353620529174805e+00,9.338063746690750122e-02,-2.563533544540405273e+00,4.018425345420837402e-01
1.761481658421491623e+09,3.295587778091430664e+00,9.210580587387084961e-02,-2.565588235855102539e+00,4.033122658729553223e-01
1.761481658441448689e+09,3.289656639099121094e+00,8.979382365942001343e-02,-2.567031383514404297e+00,4.046726822853088379e-01
1.761481658462228537e+09,3.276609420776367188e+00,7.900242507457733154e-02,-2.582234382629394531e+00,4.058139920234680176e-01
1.761481658482163191e+09,3.262768983840942383e+00,6.499289721250534058e-02,-2.591565370559692383e+00,4.071151316165924072e-01
1.761481658501285315e+09,3.248484373092651367e+00,5.524924024939537048e-02,-2.595328807830810547e+00,4.049730598926544189e-01
1.761481658522659779e+09,3.241191148757934570e+00,4.955073818564414978e-02,-2.606452703475952148e+00,4.058367311954498291e-01
1.761481658541286707e+09,3.233624935150146484e+00,4.433244094252586365e-02,-2.613188266754150391e+00,4.059681892395019531e-01
1.761481658562041998e+09,3.228112459182739258e+00,3.923298791050910950e-02,-2.617660284042358398e+00,4.074941575527191162e-01
1.761481658581399202e+09,3.221509218215942383e+00,4.047816619277000427e-02,-2.621518135070800781e+00,4.072967469692230225e-01
1.761481658602183819e+09,3.213007926940917969e+00,3.932373598217964172e-02,-2.623831987380981445e+00,4.050115346908569336e-01
1.761481658621352673e+09,3.205776453018188477e+00,3.772852197289466858e-02,-2.625516414642333984e+00,4.065245985984802246e-01
1.761481658641990423e+09,3.199472427368164062e+00,3.642108291387557983e-02,-2.626532077789306641e+00,4.081793129444122314e-01
1.761481658661542892e+09,3.196038722991943359e+00,3.495674580335617065e-02,-2.629882335662841797e+00,4.095366001129150391e-01
1.761481658681874037e+09,3.192767858505249023e+00,3.213707357645034790e-02,-2.633056163787841797e+00,4.102480709552764893e-01
1.761481658702482939e+09,3.190449714660644531e+00,2.770560421049594879e-02,-2.636094808578491211e+00,4.109696745872497559e-01
1.761481658721738338e+09,3.185461282730102539e+00,1.961522176861763000e-02,-2.643267154693603516e+00,4.109779894351959229e-01
1.761481658741949320e+09,3.179296731948852539e+00,1.232723239809274673e-02,-2.647837877273559570e+00,4.119808077812194824e-01
1.761481658761937857e+09,3.176290750503540039e+00,3.463702276349067688e-03,-2.651507854461669922e+00,4.132385849952697754e-01
1.761481658781471729e+09,3.163218736648559570e+00,1.498835254460573196e-02,-2.658370018005371094e+00,4.148642718791961670e-01
1.761481658802472353e+09,3.150581359863281250e+00,2.365905046463012695e-02,-2.660966396331787109e+00,4.149164259433746338e-01
1.761481658821684122e+09,3.139317989349365234e+00,2.793478779494762421e-02,-2.662452459335327148e+00,4.152134656906127930e-01
1.761481658841748714e+09,3.129199028015136719e+00,2.970038540661334991e-02,-2.663050651550292969e+00,4.153464734554290771e-01
1.761481658861988783e+09,3.118255138397216797e+00,3.492126986384391785e-02,-2.667897224426269531e+00,4.155831933021545410e-01
1.761481658881736755e+09,3.108402013778686523e+00,3.571005910634994507e-02,-2.670942306518554688e+00,4.159108996391296387e-01
1.761481658903291941e+09,3.098329782485961914e+00,3.514064103364944458e-02,-2.672510862350463867e+00,4.172042608261108398e-01
1.761481658922047377e+09,3.081714153289794922e+00,1.849280297756195068e-02,-2.686868667602539062e+00,4.179039001464843750e-01
1.761481658941587687e+09,3.061771869659423828e+00,-1.287994440644979477e-03,-2.697108268737792969e+00,4.190348088741302490e-01
1.761481658961893559e+09,3.046110868453979492e+00,-1.604312844574451447e-02,-2.700191259384155273e+00,4.197383821010589600e-01
1.761481658981845140e+09,3.037074327468872070e+00,-1.955170929431915283e-02,-2.701457500457763672e+00,4.199918508529663086e-01
1.761481659002406120e+09,3.032017230987548828e+00,-2.135127596557140350e-02,-2.701763629913330078e+00,4.220258891582489014e-01
1.761481659021282434e+09,3.025359153747558594e+00,-2.320570312440395355e-02,-2.702055931091308594e+00,4.221709668636322021e-01
1.761481659042050362e+09,3.019495010375976562e+00,-2.443409152328968048e-02,-2.702117204666137695e+00,4.235163927078247070e-01
1.761481659061164618e+09,3.015211343765258789e+00,-1.791680604219436646e-02,-2.712371826171875000e+00,4.241273701190948486e-01
1.761481659082253933e+09,3.014964103698730469e+00,-1.665456593036651611e-02,-2.720754384994506836e+00,4.251301288604736328e-01
1.761481659101471901e+09,3.011831760406494141e+00,-1.972389034926891327e-02,-2.726611852645874023e+00,4.262718558311462402e-01
1.761481659122625113e+09,3.007728576660156250e+00,-2.356680668890476227e-02,-2.733123302459716797e+00,4.282722473144531250e-01
1.761481659141420364e+09,3.002008676528930664e+00,-2.983888983726501465e-02,-2.737678527832031250e+00,4.231238067150115967e-01
1.761481659162289143e+09,2.997661828994750977e+00,-3.728917613625526428e-02,-2.742196559906005859e+00,4.247628152370452881e-01
1.761481659182394505e+09,2.988228559494018555e+00,-4.855324327945709229e-02,-2.750923395156860352e+00,4.235976636409759521e-01
1.761481659202593088e+09,2.980388879776000977e+00,-5.997408553957939148e-02,-2.758576869964599609e+00,4.243105351924896240e-01
1.761481659221642017e+09,2.973332643508911133e+00,-7.036053389310836792e-02,-2.765609025955200195e+00,4.251747429370880127e-01
1.761481659241449594e+09,2.967494726181030273e+00,-7.753574848175048828e-02,-2.769203901290893555e+00,4.265927374362945557e-01
1.761481659263070583e+09,2.959066390991210938e+00,-8.132562786340713501e-02,-2.773404121398925781e+00,4.248043298721313477e-01
1.761481659282352209e+09,2.956418991088867188e+00,-8.365747332572937012e-02,-2.776505231857299805e+00,4.241265058517456055e-01
1.761481659301785707e+09,2.950762748718261719e+00,-8.519003540277481079e-02,-2.778780221939086914e+00,4.253047406673431396e-01
1.761481659321781635e+09,2.941501855850219727e+00,-7.308609038591384888e-02,-2.786136865615844727e+00,4.264982640743255615e-01
1.761481659341744900e+09,2.931294202804565430e+00,-6.618148833513259888e-02,-2.789460897445678711e+00,4.265300333499908447e-01
1.761481659361570597e+09,2.922702074050903320e+00,-6.177842244505882263e-02,-2.790372133255004883e+00,4.272199571132659912e-01
1.761481659381895542e+09,2.912902355194091797e+00,-6.596399098634719849e-02,-2.793859481811523438e+00,4.277073740959167480e-01
1.761481659402113676e+09,2.903359413146972656e+00,-7.447226345539093018e-02,-2.797081947326660156e+00,4.218877255916595459e-01
1.761481659421329260e+09,2.895792961120605469e+00,-8.270341902971267700e-02,-2.799907445907592773e+00,4.221769869327545166e-01
1.761481659442990541e+09,2.889586210250854492e+00,-9.082824736833572388e-02,-2.803263664245605469e+00,4.234853982925415039e-01
1.761481659461071491e+09,2.878649950027465820e+00,-1.074507161974906921e-01,-2.819125413894653320e+00,4.246562421321868896e-01
1.761481659482539415e+09,2.864343643188476562e+00,-1.097617149353027344e-01,-2.823254823684692383e+00,4.260976016521453857e-01
1.761481659501284599e+09,2.850013017654418945e+00,-1.090790256857872009e-01,-2.824034929275512695e+00,4.268076121807098389e-01
1.761481659522498131e+09,2.829097270965576172e+00,-1.098735183477401733e-01,-2.828326463699340820e+00,4.273540973663330078e-01
1.761481659541425467e+09,2.806337356567382812e+00,-1.106633841991424561e-01,-2.832495450973510742e+00,4.267494678497314453e-01
1.761481659562040329e+09,2.787134647369384766e+00,-1.122538894414901733e-01,-2.835660696029663086e+00,4.280918240547180176e-01
1.761481659581224680e+09,2.787985563278198242e+00,-1.094849258661270142e-01,-2.848251104354858398e+00,4.303910434246063232e-01
1.761481659602268457e+09,2.790653705596923828e+00,-1.138879284262657166e-01,-2.859607934951782227e+00,4.324354231357574463e-01
1.761481659622177124e+09,2.793016195297241211e+00,-1.197440326213836670e-01,-2.866846561431884766e+00,4.337334632873535156e-01
1.761481659641571760e+09,2.793371200561523438e+00,-1.273568570613861084e-01,-2.871699571609497070e+00,4.330355823040008545e-01
1.761481659661320925e+09,2.788785934448242188e+00,-1.346300989389419556e-01,-2.877606153488159180e+00,4.348962903022766113e-01
1.761481659682652950e+09,2.785753011703491211e+00,-1.398288458585739136e-01,-2.882170677185058594e+00,4.360108673572540283e-01
1.761481659702083826e+09,2.781260013580322266e+00,-1.432650685310363770e-01,-2.884220600128173828e+00,4.381019175052642822e-01
1.761481659721868277e+09,2.774018526077270508e+00,-1.437419056892395020e-01,-2.886535882949829102e+00,4.399669170379638672e-01
1.761481659741777420e+09,2.768352031707763672e+00,-1.463358253240585327e-01,-2.888303279876708984e+00,4.415753185749053955e-01
1.761481659761824846e+09,2.763686418533325195e+00,-1.474897116422653198e-01,-2.890029907226562500e+00,4.416623115539550781e-01
1.761481659781687975e+09,2.755286693572998047e+00,-1.436851769685745239e-01,-2.892819166183471680e+00,4.429356753826141357e-01
1.761481659801863909e+09,2.748364925384521484e+00,-1.426130682229995728e-01,-2.894704103469848633e+00,4.433791935443878174e-01
1.761481659821621180e+09,2.742159128189086914e+00,-1.419622451066970825e-01,-2.896442174911499023e+00,4.441969096660614014e-01
1.761481659842715025e+09,2.739020347595214844e+00,-1.407151073217391968e-01,-2.896730422973632812e+00,4.456539154052734375e-01
1.761481659861126423e+09,2.721101284027099609e+00,-1.544093340635299683e-01,-2.909457206726074219e+00,4.461040198802947998e-01
1.761481659881991863e+09,2.707268476486206055e+00,-1.726267337799072266e-01,-2.918836355209350586e+00,4.480302333831787109e-01
1.761481659901267529e+09,2.698790788650512695e+00,-1.883338987827301025e-01,-2.925409078598022461e+00,4.481639862060546875e-01
1.761481659921982288e+09,2.689757585525512695e+00,-1.951282769441604614e-01,-2.931152582168579102e+00,4.497711658477783203e-01
1.761481659941447973e+09,2.683449983596801758e+00,-2.009097188711166382e-01,-2.934978246688842773e+00,4.507579505443572998e-01
1.761481659962292194e+09,2.677112817764282227e+00,-2.038238644599914551e-01,-2.937512159347534180e+00,4.520423412322998047e-01
1.761481659981079102e+09,2.667115926742553711e+00,-1.848385334014892578e-01,-2.944708585739135742e+00,4.522447288036346436e-01
1.761481660002364397e+09,2.657003164291381836e+00,-1.717139035463333130e-01,-2.944138526916503906e+00,4.541896879673004150e-01
1.761481660021796942e+09,2.648973941802978516e+00,-1.614763140678405762e-01,-2.942300081253051758e+00,4.555555284023284912e-01
1.761481660042398930e+09,2.643056869506835938e+00,-1.540848910808563232e-01,-2.940134048461914062e+00,4.569371044635772705e-01
1.761481660062000275e+09,2.634024381637573242e+00,-1.463948190212249756e-01,-2.941492080688476562e+00,4.569573402404785156e-01
1.761481660081787825e+09,2.628142595291137695e+00,-1.418690532445907593e-01,-2.942493677139282227e+00,4.569983482360839844e-01
1.761481660101391077e+09,2.620588779449462891e+00,-1.389169096946716309e-01,-2.941424608230590820e+00,4.581671059131622314e-01
1.761481660122025251e+09,2.613442420959472656e+00,-1.368017196655273438e-01,-2.944207191467285156e+00,4.533477127552032471e-01
1.761481660141660690e+09,2.603474140167236328e+00,-1.370999366044998169e-01,-2.945470333099365234e+00,4.540211558341979980e-01
1.761481660161972523e+09,2.595814466476440430e+00,-1.385062634944915771e-01,-2.946960687637329102e+00,4.544629454612731934e-01
1.761481660181390047e+09,2.584548711776733398e+00,-1.416279226541519165e-01,-2.950880527496337891e+00,4.548705220222473145e-01
1.761481660201470137e+09,2.576771974563598633e+00,-1.441911458969116211e-01,-2.953567981719970703e+00,4.572075605392456055e-01
1.761481660222084761e+09,2.566082954406738281e+00,-1.469594538211822510e-01,-2.955884933471679688e+00,4.582971632480621338e-01
1.761481660241552114e+09,2.556057214736938477e+00,-1.489012986421585083e-01,-2.956985712051391602e+00,4.599763751029968262e-01
1.761481660261804819e+09,2.545764207839965820e+00,-1.516537517309188843e-01,-2.957891464233398438e+00,4.613841474056243896e-01
1.761481660282281637e+09,2.532767534255981445e+00,-1.546588391065597534e-01,-2.958911180496215820e+00,4.624954760074615479e-01
1.761481660301215887e+09,2.521595001220703125e+00,-1.554219275712966919e-01,-2.959990024566650391e+00,4.646171927452087402e-01
1.761481660321850300e+09,2.509443283081054688e+00,-1.612443029880523682e-01,-2.969401359558105469e+00,4.662872254848480225e-01
1.761481660341450691e+09,2.500625371932983398e+00,-1.674657315015792847e-01,-2.977412939071655273e+00,4.659365713596343994e-01
1.761481660362452507e+09,2.495173454284667969e+00,-1.723399013280868530e-01,-2.983246803283691406e+00,4.630974829196929932e-01
1.761481660380974531e+09,2.488434791564941406e+00,-1.755521893501281738e-01,-2.986586332321166992e+00,4.637188613414764404e-01
1.761481660402816772e+09,2.483745574951171875e+00,-1.785127073526382446e-01,-2.989001512527465820e+00,4.640704095363616943e-01
1.761481660422238588e+09,2.477535486221313477e+00,-1.798245608806610107e-01,-2.990064620971679688e+00,4.644589722156524658e-01
