# x,y,theta,velocity
1.754466533660888672e+00,2.815569400787353516e+00,-2.261059172451496124e-02,2.000000000000000000e+00
1.853919148445129395e+00,2.812570810317993164e+00,-3.799131140112876892e-02,2.000000000000000000e+00
1.953309297561645508e+00,2.807948589324951172e+00,-5.527247861027717590e-02,2.000000000000000000e+00
2.052598237991333008e+00,2.801514387130737305e+00,-7.447017729282379150e-02,2.000000000000000000e+00
2.151737213134765625e+00,2.793079853057861328e+00,-9.560135751962661743e-02,2.000000000000000000e+00
2.245706796646118164e+00,2.810239791870117188e+00,7.185496389865875244e-03,2.000000000000000000e+00
2.345234870910644531e+00,2.807828903198242188e+00,-5.662597343325614929e-02,2.000000000000000000e+00
2.444397687911987305e+00,2.798976898193359375e+00,-1.215332895517349243e-01,2.000000000000000000e+00
2.542775869369506836e+00,2.783702135086059570e+00,-1.865077465772628784e-01,2.000000000000000000e+00
2.639955997467041016e+00,2.762074708938598633e+00,-2.512933909893035889e-01,2.000000000000000000e+00
2.735534667968750000e+00,2.734217166900634766e+00,-3.156620860099792480e-01,2.000000000000000000e+00
2.829138755798339844e+00,2.700291156768798828e+00,-3.794491887092590332e-01,2.000000000000000000e+00
2.920460224151611328e+00,2.660473585128784180e+00,-4.423359036445617676e-01,2.000000000000000000e+00
3.009176731109619141e+00,2.615018367767333984e+00,-5.037891268730163574e-01,2.000000000000000000e+00
3.094995260238647461e+00,2.564264059066772461e+00,-5.630949139595031738e-01,2.000000000000000000e+00
3.177732944488525391e+00,2.508614063262939453e+00,-6.194273829460144043e-01,2.000000000000000000e+00
3.257327318191528320e+00,2.448513984680175781e+00,-6.721724271774291992e-01,2.000000000000000000e+00
3.333787918090820312e+00,2.384425878524780273e+00,-7.211965322494506836e-01,2.000000000000000000e+00
3.407137393951416016e+00,2.316802978515625000e+00,-7.669197320938110352e-01,2.000000000000000000e+00
3.477363348007202148e+00,2.246061086654663086e+00,-8.101769685745239258e-01,2.000000000000000000e+00
3.544421672821044922e+00,2.172540903091430664e+00,-8.518725633621215820e-01,2.000000000000000000e+00
3.608291625976562500e+00,2.096457004547119141e+00,-8.926897644996643066e-01,2.000000000000000000e+00
3.669016122817993164e+00,2.017868041992187500e+00,-9.330075383186340332e-01,2.000000000000000000e+00
3.726665735244750977e+00,1.936732053756713867e+00,-9.730395078659057617e-01,2.000000000000000000e+00
3.781255483627319336e+00,1.853015899658203125e+00,-1.013097405433654785e+00,2.000000000000000000e+00
3.832656383514404297e+00,1.766806721687316895e+00,-1.053860783576965332e+00,2.000000000000000000e+00
3.880514144897460938e+00,1.678418278694152832e+00,-1.096580982208251953e+00,1.935727953910827637e+00
3.924241781234741211e+00,1.588375449180603027e+00,-1.142956256866455078e+00,1.856314301490783691e+00
3.963175296783447266e+00,1.497147321701049805e+00,-1.194483757019042969e+00,1.775433301925659180e+00
3.996780395507812500e+00,1.404800057411193848e+00,-1.251503348350524902e+00,1.691492795944213867e+00
4.024815559387207031e+00,1.310701251029968262e+00,-1.313398838043212891e+00,1.603300929069519043e+00
4.047067642211914062e+00,1.213765025138854980e+00,-1.381942749023437500e+00,1.508427500724792480e+00
4.062525272369384766e+00,1.113403797149658203e+00,-1.465954899787902832e+00,1.415549278259277344e+00
4.068444728851318359e+00,1.010613799095153809e+00,-1.583687543869018555e+00,1.340581893920898438e+00
4.059886932373046875e+00,9.087488651275634766e-01,-1.756432294845581055e+00,1.302005648612976074e+00
4.031314849853515625e+00,8.129028081893920898e-01,-1.989584565162658691e+00,1.299782514572143555e+00
3.979590415954589844e+00,7.283566594123840332e-01,-2.251570224761962891e+00,1.299782514572143555e+00
3.906686544418334961e+00,6.590294837951660156e-01,-2.492001771926879883e+00,1.299782514572143555e+00
3.819273710250854492e+00,6.065866351127624512e-01,-2.687439441680908203e+00,1.327821850776672363e+00
3.724873781204223633e+00,5.702706575393676758e-01,-2.839648008346557617e+00,1.381914973258972168e+00
3.628074407577514648e+00,5.470340847969055176e-01,-2.951113462448120117e+00,1.453819870948791504e+00
3.530122518539428711e+00,5.327194333076477051e-01,-3.024938106536865234e+00,1.542345762252807617e+00
3.431138992309570312e+00,5.239559412002563477e-01,-3.072514772415161133e+00,1.644834756851196289e+00
3.331439495086669922e+00,5.189729332923889160e-01,-3.107151508331298828e+00,1.753129839897155762e+00
3.231498718261718750e+00,5.170773863792419434e-01,-3.136354684829711914e+00,1.859506130218505859e+00
3.131695508956909180e+00,5.179266929626464844e-01,3.121673107147216797e+00,1.961201786994934082e+00
3.032166481018066406e+00,5.210484862327575684e-01,3.101897716522216797e+00,2.000000000000000000e+00
2.932853937149047852e+00,5.258238911628723145e-01,3.088473081588745117e+00,2.000000000000000000e+00
2.833616256713867188e+00,5.316053032875061035e-01,3.081170558929443359e+00,2.000000000000000000e+00
2.734333038330078125e+00,5.378335118293762207e-01,3.078763484954833984e+00,2.000000000000000000e+00
2.634963035583496094e+00,5.441029667854309082e-01,3.079746246337890625e+00,2.000000000000000000e+00
2.535526037216186523e+00,5.501447319984436035e-01,3.082906007766723633e+00,2.000000000000000000e+00
2.436064720153808594e+00,5.557891130447387695e-01,3.087430715560913086e+00,2.000000000000000000e+00
2.336609125137329102e+00,5.609290599822998047e-01,3.092830896377563477e+00,2.000000000000000000e+00
2.237161636352539062e+00,5.654956698417663574e-01,3.098789215087890625e+00,2.000000000000000000e+00
2.137707233428955078e+00,5.694479346275329590e-01,3.105064392089843750e+00,2.000000000000000000e+00
2.038227081298828125e+00,5.727655887603759766e-01,3.111481904983520508e+00,2.000000000000000000e+00
1.938712239265441895e+00,5.754416584968566895e-01,3.117928981781005859e+00,2.000000000000000000e+00
1.839167118072509766e+00,5.774769783020019531e-01,3.124344348907470703e+00,2.000000000000000000e+00
1.739603996276855469e+00,5.788762569427490234e-01,3.130710840225219727e+00,2.000000000000000000e+00
1.640036463737487793e+00,5.796439647674560547e-01,3.137047767639160156e+00,2.000000000000000000e+00
1.540473103523254395e+00,5.797812938690185547e-01,-3.139792442321777344e+00,2.000000000000000000e+00
1.440917015075683594e+00,5.792855620384216309e-01,-3.133410930633544922e+00,2.000000000000000000e+00
1.341368436813354492e+00,5.781522393226623535e-01,-3.126985549926757812e+00,2.000000000000000000e+00
1.241827487945556641e+00,5.763772130012512207e-01,-3.120527267456054688e+00,2.000000000000000000e+00
1.142296791076660156e+00,5.739580988883972168e-01,-3.114053249359130859e+00,2.000000000000000000e+00
1.042781114578247070e+00,5.708941817283630371e-01,-3.107574224472045898e+00,2.000000000000000000e+00
9.432864189147949219e-01,5.671854615211486816e-01,-3.101090908050537109e+00,2.000000000000000000e+00
8.438187241554260254e-01,5.628314614295959473e-01,-3.094595432281494141e+00,2.000000000000000000e+00
7.443828582763671875e-01,5.578306317329406738e-01,-3.088078737258911133e+00,2.000000000000000000e+00
6.449828743934631348e-01,5.521807670593261719e-01,-3.081537723541259766e+00,2.000000000000000000e+00
5.456222891807556152e-01,5.458797216415405273e-01,-3.074978113174438477e+00,2.000000000000000000e+00
4.463047981262207031e-01,5.389263629913330078e-01,-3.068413734436035156e+00,2.000000000000000000e+00
3.470349013805389404e-01,5.313212871551513672e-01,-3.061856269836425781e+00,2.000000000000000000e+00
2.478174120187759399e-01,5.230660438537597656e-01,-3.055303812026977539e+00,2.000000000000000000e+00
1.486571580171585083e-01,5.141608715057373047e-01,-3.048736095428466797e+00,2.000000000000000000e+00
4.955828562378883362e-02,5.046032667160034180e-01,-3.042124032974243164e+00,2.000000000000000000e+00
-4.947578534483909607e-02,4.943876266479492188e-01,-3.035454273223876953e+00,2.000000000000000000e+00
-1.484416723251342773e-01,4.835086166858673096e-01,-3.028750181198120117e+00,2.000000000000000000e+00
-2.473350465297698975e-01,4.719654321670532227e-01,-3.022070884704589844e+00,2.000000000000000000e+00
-3.461498320102691650e-01,4.597650170326232910e-01,-3.015478372573852539e+00,2.000000000000000000e+00
-4.448788762092590332e-01,4.469193816184997559e-01,-3.008977651596069336e+00,2.000000000000000000e+00
-5.435157418251037598e-01,4.334368109703063965e-01,-3.002487897872924805e+00,2.000000000000000000e+00
-6.420569419860839844e-01,4.193127155303955078e-01,-2.995862483978271484e+00,2.000000000000000000e+00
-7.405028343200683594e-01,4.045248925685882568e-01,-2.988990306854248047e+00,2.000000000000000000e+00
-8.388551473617553711e-01,3.890455067157745361e-01,-2.981914281845092773e+00,2.000000000000000000e+00
-9.371126890182495117e-01,3.728609681129455566e-01,-2.974866867065429688e+00,2.000000000000000000e+00
-1.035266757011413574e+00,3.559918105602264404e-01,-2.968185901641845703e+00,2.000000000000000000e+00
-1.133300423622131348e+00,3.384955525398254395e-01,-2.962029218673706055e+00,2.000000000000000000e+00
-1.231195211410522461e+00,3.204271495342254639e-01,-2.956099271774291992e+00,2.000000000000000000e+00
-1.328940629959106445e+00,3.017835319042205811e-01,-2.949608802795410156e+00,2.000000000000000000e+00
-1.426545381546020508e+00,2.824553847312927246e-01,-2.942027330398559570e+00,2.000000000000000000e+00
-1.524055361747741699e+00,2.623201310634613037e-01,-2.935130596160888672e+00,2.000000000000000000e+00
-1.621587038040161133e+00,2.416045814752578735e-01,-2.934510231018066406e+00,2.000000000000000000e+00
-1.719356060028076172e+00,2.212885469198226929e-01,-2.948121786117553711e+00,1.946099162101745605e+00
-1.817621231079101562e+00,2.031972706317901611e-01,-2.982970237731933594e+00,1.866210937500000000e+00
-1.916537046432495117e+00,1.897462606430053711e-01,-3.043274164199829102e+00,1.807530522346496582e+00
-2.015990734100341797e+00,1.836308240890502930e-01,-3.130375146865844727e+00,1.771219968795776367e+00
-2.115438461303710938e+00,1.875149905681610107e-01,3.040475606918334961e+00,1.755909323692321777e+00
-2.213645696640014648e+00,2.036855518817901611e-01,2.908205509185791016e+00,1.755909323692321777e+00
-2.308617115020751953e+00,2.334372699260711670e-01,2.766095638275146484e+00,1.755909323692321777e+00
-2.398353815078735352e+00,2.764975428581237793e-01,2.634466886520385742e+00,1.756242632865905762e+00
-2.490709066390991211e+00,3.836683630943298340e-01,2.391213893890380859e+00,1.893377900123596191e+00
-2.561078071594238281e+00,4.539841115474700928e-01,2.322034835815429688e+00,1.892040491104125977e+00
-2.626455545425415039e+00,5.289645195007324219e-01,2.254015922546386719e+00,1.890028119087219238e+00
-2.686650037765502930e+00,6.081669330596923828e-01,2.187568902969360352e+00,1.885917901992797852e+00
-2.741508960723876953e+00,6.911554336547851562e-01,2.122410535812377930e+00,1.879863977432250977e+00
-2.790893793106079102e+00,7.775140404701232910e-01,2.058268547058105469e+00,1.872026324272155762e+00
-2.834677457809448242e+00,8.668433427810668945e-01,1.994883775711059570e+00,1.862560510635375977e+00
-2.872740030288696289e+00,9.587565064430236816e-01,1.932004094123840332e+00,1.851621031761169434e+00
-2.904966115951538086e+00,1.052875161170959473e+00,1.869382143020629883e+00,1.839364171028137207e+00
-2.931241273880004883e+00,1.148825287818908691e+00,1.806771278381347656e+00,1.825949668884277344e+00
-2.951452016830444336e+00,1.246233344078063965e+00,1.743923544883728027e+00,1.811543107032775879e+00
-2.965482711791992188e+00,1.344721436500549316e+00,1.680585980415344238e+00,1.796318769454956055e+00
-2.973216533660888672e+00,1.443902373313903809e+00,1.616498470306396484e+00,1.780462384223937988e+00
-2.974534273147583008e+00,1.543375015258789062e+00,1.551390528678894043e+00,1.764174461364746094e+00
-2.969314813613891602e+00,1.642718791961669922e+00,1.484978318214416504e+00,1.747922420501708984e+00
-2.957437515258789062e+00,1.741487145423889160e+00,1.416961073875427246e+00,1.732053756713867188e+00
-2.938783645629882812e+00,1.839201211929321289e+00,1.347017288208007812e+00,1.716922640800476074e+00
-2.913240432739257812e+00,1.935343384742736816e+00,1.274801254272460938e+00,1.702943444252014160e+00
-2.880705833435058594e+00,2.029348373413085938e+00,1.199936509132385254e+00,1.690613627433776855e+00
-2.841096162796020508e+00,2.120595932006835938e+00,1.122017264366149902e+00,1.680515408515930176e+00
-2.794353961944580078e+00,2.208401441574096680e+00,1.040580272674560547e+00,1.673411726951599121e+00
-2.740462541580200195e+00,2.292006254196166992e+00,9.551848769187927246e-01,1.670025348663330078e+00
-2.679484844207763672e+00,2.370588779449462891e+00,8.660013675689697266e-01,1.670025348663330078e+00
-2.611719846725463867e+00,2.443400382995605469e+00,7.772997021675109863e-01,1.670025348663330078e+00
-2.537934541702270508e+00,2.510108947753906250e+00,6.938647627830505371e-01,1.674356818199157715e+00
-2.459022045135498047e+00,2.570672273635864258e+00,6.162366867065429688e-01,1.684267640113830566e+00
-2.375793218612670898e+00,2.625158071517944336e+00,5.438885688781738281e-01,1.698585748672485352e+00
-2.288961887359619141e+00,2.673702955245971680e+00,4.764650166034698486e-01,1.716577529907226562e+00
-2.199153900146484375e+00,2.716497182846069336e+00,4.136286377906799316e-01,1.737691640853881836e+00
-2.106914520263671875e+00,2.753767728805541992e+00,3.550677001476287842e-01,1.761420488357543945e+00
-2.012714624404907227e+00,2.785768032073974609e+00,3.005399107933044434e-01,1.787410974502563477e+00
-1.916961431503295898e+00,2.812772512435913086e+00,2.498511672019958496e-01,1.815407752990722656e+00
-1.820002555847167969e+00,2.835071086883544922e+00,2.028495222330093384e-01,1.845236301422119141e+00
-1.722133636474609375e+00,2.852965116500854492e+00,1.594177633523941040e-01,1.876786947250366211e+00
-1.623602867126464844e+00,2.866765499114990234e+00,1.194681525230407715e-01,1.910001993179321289e+00
-1.524615406990051270e+00,2.876789331436157227e+00,8.293846994638442993e-02,1.944868087768554688e+00
-1.425337910652160645e+00,2.883359432220458984e+00,4.978810623288154602e-02,1.981409430503845215e+00
-1.325901985168457031e+00,2.886802434921264648e+00,1.999466679990291595e-02,2.000000000000000000e+00
-1.226407766342163086e+00,2.887448549270629883e+00,-6.449051201343536377e-03,2.000000000000000000e+00
-1.126927495002746582e+00,2.885630369186401367e+00,-2.953802421689033508e-02,2.000000000000000000e+00
-1.027508378028869629e+00,2.881683588027954102e+00,-4.925780743360519409e-02,2.000000000000000000e+00
-9.281760454177856445e-01,2.875945091247558594e+00,-6.558723002672195435e-02,2.000000000000000000e+00
-8.289378881454467773e-01,2.868754625320434570e+00,-7.850106805562973022e-02,2.000000000000000000e+00
-7.297862768173217773e-01,2.860453605651855469e+00,-8.797253668308258057e-02,2.000000000000000000e+00
-6.307017207145690918e-01,2.851385593414306641e+00,-9.397577494382858276e-02,2.000000000000000000e+00
-5.316566228866577148e-01,2.841895580291748047e+00,-9.648779034614562988e-02,2.000000000000000000e+00
-4.326187968254089355e-01,2.832330465316772461e+00,-9.549098461866378784e-02,2.000000000000000000e+00
-3.335551023483276367e-01,2.823038339614868164e+00,-9.097339957952499390e-02,2.000000000000000000e+00
-2.344352453947067261e-01,2.814368486404418945e+00,-8.293133229017257690e-02,2.000000000000000000e+00
-1.352356225252151489e-01,2.806669473648071289e+00,-7.140507549047470093e-02,2.000000000000000000e+00
-3.594313561916351318e-02,2.800282955169677734e+00,-5.650838837027549744e-02,2.000000000000000000e+00
6.343878060579299927e-02,2.795480728149414062e+00,-4.010539129376411438e-02,2.000000000000000000e+00
1.628851890563964844e-01,2.792269468307495117e+00,-2.476391196250915527e-02,2.000000000000000000e+00
2.623678147792816162e-01,2.790493488311767578e+00,-1.123703643679618835e-02,2.000000000000000000e+00
3.618651032447814941e-01,2.789974212646484375e+00,5.062941345386207104e-04,2.000000000000000000e+00
4.613623321056365967e-01,2.790535211563110352e+00,1.047400012612342834e-02,2.000000000000000000e+00
5.608505010604858398e-01,2.791999816894531250e+00,1.867049559950828552e-02,2.000000000000000000e+00
6.603254079818725586e-01,2.794191837310791016e+00,2.509791404008865356e-02,2.000000000000000000e+00
7.597866654396057129e-01,2.796935081481933594e+00,2.975522913038730621e-02,2.000000000000000000e+00
8.592369556427001953e-01,2.800053358078002930e+00,3.263922035694122314e-02,2.000000000000000000e+00
9.586807489395141602e-01,2.803369998931884766e+00,3.374435007572174072e-02,2.000000000000000000e+00
1.058123826980590820e+00,2.806707859039306641e+00,3.306328877806663513e-02,2.000000000000000000e+00
1.157572031021118164e+00,2.809888839721679688e+00,3.058718144893646240e-02,2.000000000000000000e+00
1.257030367851257324e+00,2.812733888626098633e+00,2.630570717155933380e-02,2.000000000000000000e+00
1.356501936912536621e+00,2.815062761306762695e+00,2.020744234323501587e-02,2.000000000000000000e+00
1.455987215042114258e+00,2.816694021224975586e+00,1.228008978068828583e-02,2.000000000000000000e+00
1.555482864379882812e+00,2.817445278167724609e+00,2.510544843971729279e-03,2.000000000000000000e+00
1.654980659484863281e+00,2.817132234573364258e+00,-9.114919230341911316e-03,2.000000000000000000e+00
