# x,y,theta,velocity
-2.749714814126491547e-02,-1.927009671926498413e-01,3.104305267333984375e+00,2.000000000000000000e+00
-1.269267350435256958e-01,-1.889862269163131714e-01,3.104239702224731445e+00,2.000000000000000000e+00
-2.263566106557846069e-01,-1.852787733078002930e-01,3.104452371597290039e+00,2.000000000000000000e+00
-3.257877528667449951e-01,-1.816062778234481812e-01,3.104942560195922852e+00,2.000000000000000000e+00
-4.252209067344665527e-01,-1.779877394437789917e-01,3.105451583862304688e+00,2.000000000000000000e+00
-5.246541500091552734e-01,-1.743723750114440918e-01,3.104649305343627930e+00,2.000000000000000000e+00
-6.240795850753784180e-01,-1.705494970083236694e-01,3.101184129714965820e+00,2.000000000000000000e+00
-7.234848141670227051e-01,-1.662358641624450684e-01,3.094776153564453125e+00,2.000000000000000000e+00
-8.228527903556823730e-01,-1.611390709877014160e-01,3.085423946380615234e+00,2.000000000000000000e+00
-9.221595525741577148e-01,-1.549669951200485229e-01,3.073126554489135742e+00,2.000000000000000000e+00
-1.021371483802795410e+00,-1.474280059337615967e-01,3.057881593704223633e+00,2.000000000000000000e+00
-1.120443105697631836e+00,-1.382313519716262817e-01,3.039685249328613281e+00,2.000000000000000000e+00
-1.219314217567443848e+00,-1.270874887704849243e-01,3.018531560897827148e+00,2.000000000000000000e+00
-1.317907214164733887e+00,-1.137086898088455200e-01,2.994410991668701172e+00,2.000000000000000000e+00
-1.416124582290649414e+00,-9.780971705913543701e-02,2.967309474945068359e+00,2.000000000000000000e+00
-1.513846516609191895e+00,-7.910876721143722534e-02,2.937207698822021484e+00,2.000000000000000000e+00
-1.610927820205688477e+00,-5.732857435941696167e-02,2.904078483581542969e+00,2.000000000000000000e+00
-1.707195162773132324e+00,-3.219777345657348633e-02,2.867886066436767578e+00,2.000000000000000000e+00
-1.802444815635681152e+00,-3.452595556154847145e-03,2.828583717346191406e+00,2.000000000000000000e+00
-1.896438956260681152e+00,2.916109561920166016e-02,2.786111354827880859e+00,1.979170680046081543e+00
-1.988903284072875977e+00,6.588534265756607056e-02,2.740393400192260742e+00,1.957600116729736328e+00
-2.079523324966430664e+00,1.069471165537834167e-01,2.691334962844848633e+00,1.938598155975341797e+00
-2.167941331863403320e+00,1.525546759366989136e-01,2.638818979263305664e+00,1.922426104545593262e+00
-2.253752231597900391e+00,2.028932124376296997e-01,2.582702159881591797e+00,1.909422755241394043e+00
-2.336499691009521484e+00,2.581194937229156494e-01,2.522806644439697266e+00,1.900028109550476074e+00
-2.415672540664672852e+00,3.183552622795104980e-01,2.458922147750854492e+00,1.894784212112426758e+00
-2.490709066390991211e+00,3.836683630943298340e-01,2.391213893890380859e+00,1.893377900123596191e+00
-2.561078071594238281e+00,4.539841115474700928e-01,2.322034835815429688e+00,1.892040491104125977e+00
-2.626455545425415039e+00,5.289645195007324219e-01,2.254015922546386719e+00,1.890028119087219238e+00
-2.686650037765502930e+00,6.081669330596923828e-01,2.187568902969360352e+00,1.885917901992797852e+00
-2.741508960723876953e+00,6.911554336547851562e-01,2.122410535812377930e+00,1.879863977432250977e+00
-2.790893793106079102e+00,7.775140404701232910e-01,2.058268547058105469e+00,1.872026324272155762e+00
-2.834677457809448242e+00,8.668433427810668945e-01,1.994883775711059570e+00,1.862560510635375977e+00
-2.872740030288696289e+00,9.587565064430236816e-01,1.932004094123840332e+00,1.851621031761169434e+00
-2.904966115951538086e+00,1.052875161170959473e+00,1.869382143020629883e+00,1.839364171028137207e+00
-2.931241273880004883e+00,1.148825287818908691e+00,1.806771278381347656e+00,1.825949668884277344e+00
-2.951452016830444336e+00,1.246233344078063965e+00,1.743923544883728027e+00,1.811543107032775879e+00
-2.965482711791992188e+00,1.344721436500549316e+00,1.680585980415344238e+00,1.796318769454956055e+00
-2.973216533660888672e+00,1.443902373313903809e+00,1.616498470306396484e+00,1.780462384223937988e+00
-2.974534273147583008e+00,1.543375015258789062e+00,1.551390528678894043e+00,1.764174461364746094e+00
-2.969314813613891602e+00,1.642718791961669922e+00,1.484978318214416504e+00,1.747922420501708984e+00
-2.957437515258789062e+00,1.741487145423889160e+00,1.416961073875427246e+00,1.732053756713867188e+00
-2.938783645629882812e+00,1.839201211929321289e+00,1.347017288208007812e+00,1.716922640800476074e+00
-2.913240432739257812e+00,1.935343384742736816e+00,1.274801254272460938e+00,1.702943444252014160e+00
-2.880705833435058594e+00,2.029348373413085938e+00,1.199936509132385254e+00,1.690613627433776855e+00
-2.841096162796020508e+00,2.120595932006835938e+00,1.122017264366149902e+00,1.680515408515930176e+00
-2.794353961944580078e+00,2.208401441574096680e+00,1.040580272674560547e+00,1.673411726951599121e+00
-2.740462541580200195e+00,2.292006254196166992e+00,9.551848769187927246e-01,1.670025348663330078e+00
-2.679484844207763672e+00,2.370588779449462891e+00,8.660013675689697266e-01,1.670025348663330078e+00
-2.611719846725463867e+00,2.443400382995605469e+00,7.772997021675109863e-01,1.670025348663330078e+00
-2.537934541702270508e+00,2.510108947753906250e+00,6.938647627830505371e-01,1.674356818199157715e+00
-2.459022045135498047e+00,2.570672273635864258e+00,6.162366867065429688e-01,1.684267640113830566e+00
-2.375793218612670898e+00,2.625158071517944336e+00,5.438885688781738281e-01,1.698585748672485352e+00
-2.288961887359619141e+00,2.673702955245971680e+00,4.764650166034698486e-01,1.716577529907226562e+00
-2.199153900146484375e+00,2.716497182846069336e+00,4.136286377906799316e-01,1.737691640853881836e+00
-2.106914520263671875e+00,2.753767728805541992e+00,3.550677001476287842e-01,1.761420488357543945e+00
-1.995751619338989258e+00,2.755129575729370117e+00,-1.910269409418106079e-01,2.000000000000000000e+00
-1.896687626838684082e+00,2.735917329788208008e+00,-1.920653283596038818e-01,2.000000000000000000e+00
-1.797643065452575684e+00,2.716604948043823242e+00,-1.929014325141906738e-01,2.000000000000000000e+00
-1.698611378669738770e+00,2.697227001190185547e+00,-1.934040188789367676e-01,2.000000000000000000e+00
-1.599586248397827148e+00,2.677815198898315430e+00,-1.935888230800628662e-01,2.000000000000000000e+00
-1.500561714172363281e+00,2.658400535583496094e+00,-1.934701055288314819e-01,2.000000000000000000e+00
-1.401531934738159180e+00,2.639012336730957031e+00,-1.930610090494155884e-01,2.000000000000000000e+00
-1.302491545677185059e+00,2.619678497314453125e+00,-1.923736780881881714e-01,2.000000000000000000e+00
-1.203435182571411133e+00,2.600426435470581055e+00,-1.914187222719192505e-01,2.000000000000000000e+00
-1.104357957839965820e+00,2.581281900405883789e+00,-1.902052909135818481e-01,2.000000000000000000e+00
-1.005255222320556641e+00,2.562270402908325195e+00,-1.887418627738952637e-01,2.000000000000000000e+00
-9.061223268508911133e-01,2.543416023254394531e+00,-1.870369464159011841e-01,2.000000000000000000e+00
-8.069552183151245117e-01,2.524742364883422852e+00,-1.850992292165756226e-01,2.000000000000000000e+00
-7.077499628067016602e-01,2.506272077560424805e+00,-1.829366385936737061e-01,2.000000000000000000e+00
-6.085028648376464844e-01,2.488027572631835938e+00,-1.805551946163177490e-01,2.000000000000000000e+00
-5.092105865478515625e-01,2.470030069351196289e+00,-1.779584735631942749e-01,2.000000000000000000e+00
-4.098699688911437988e-01,2.452301263809204102e+00,-1.751485466957092285e-01,2.000000000000000000e+00
-3.104780018329620361e-01,2.434862136840820312e+00,-1.721285581588745117e-01,2.000000000000000000e+00
-2.110320478677749634e-01,2.417733430862426758e+00,-1.689049154520034790e-01,2.000000000000000000e+00
-1.115296408534049988e-01,2.400935411453247070e+00,-1.654872447252273560e-01,2.000000000000000000e+00
-1.196870300918817520e-02,2.384486913681030273e+00,-1.618852317333221436e-01,2.000000000000000000e+00
8.765254169702529907e-02,2.368406057357788086e+00,-1.581035703420639038e-01,2.000000000000000000e+00
1.873356103897094727e-01,2.352710962295532227e+00,-1.541394591331481934e-01,2.000000000000000000e+00
2.870817780494689941e-01,2.337420463562011719e+00,-1.499828398227691650e-01,2.000000000000000000e+00
3.868921101093292236e-01,2.322554588317871094e+00,-1.456224173307418823e-01,2.000000000000000000e+00
4.867675900459289551e-01,2.308134317398071289e+00,-1.410576403141021729e-01,2.000000000000000000e+00
5.867087841033935547e-01,2.294180393218994141e+00,-1.363064348697662354e-01,2.000000000000000000e+00
6.867160201072692871e-01,2.280710220336914062e+00,-1.314034014940261841e-01,2.000000000000000000e+00
7.867891192436218262e-01,2.267736911773681641e+00,-1.263800710439682007e-01,2.000000000000000000e+00
8.869275450706481934e-01,2.255271911621093750e+00,-1.212335303425788879e-01,2.000000000000000000e+00
9.871307015419006348e-01,2.243329048156738281e+00,-1.159105673432350159e-01,2.000000000000000000e+00
1.087397813796997070e+00,2.231930494308471680e+00,-1.103264987468719482e-01,2.000000000000000000e+00
1.187728524208068848e+00,2.221107482910156250e+00,-1.044582650065422058e-01,2.000000000000000000e+00
1.288120985031127930e+00,2.210886716842651367e+00,-9.845830500125885010e-02,2.000000000000000000e+00
1.388571739196777344e+00,2.201268672943115234e+00,-9.269592165946960449e-02,2.000000000000000000e+00
1.489073514938354492e+00,2.192205667495727539e+00,-8.770729601383209229e-02,2.000000000000000000e+00
1.589615106582641602e+00,2.183590412139892578e+00,-8.402471244335174561e-02,2.000000000000000000e+00
1.690182209014892578e+00,2.175267696380615234e+00,-8.201214671134948730e-02,2.000000000000000000e+00
1.790758728981018066e+00,2.167057037353515625e+00,-8.182176202535629272e-02,2.000000000000000000e+00
1.891328930854797363e+00,2.158772706985473633e+00,-8.343578130006790161e-02,2.000000000000000000e+00
1.991877794265747070e+00,2.150237560272216797e+00,-8.679224550724029541e-02,2.000000000000000000e+00
2.092389822006225586e+00,2.141278266906738281e+00,-9.189640730619430542e-02,2.000000000000000000e+00
2.192847013473510742e+00,2.131716966629028320e+00,-9.884697943925857544e-02,2.000000000000000000e+00
2.293226957321166992e+00,2.121361255645751953e+00,-1.078191101551055908e-01,2.000000000000000000e+00
2.393501281738281250e+00,2.109998464584350586e+00,-1.190254986286163330e-01,2.000000000000000000e+00
2.493631124496459961e+00,2.097394704818725586e+00,-1.326894909143447876e-01,2.000000000000000000e+00
2.593566179275512695e+00,2.083294868469238281e+00,-1.490467339754104614e-01,2.000000000000000000e+00
2.693239450454711914e+00,2.067421436309814453e+00,-1.683789640665054321e-01,2.000000000000000000e+00
2.792563199996948242e+00,2.049467802047729492e+00,-1.910648047924041748e-01,2.000000000000000000e+00
2.891421318054199219e+00,2.029088258743286133e+00,-2.176053673028945923e-01,2.000000000000000000e+00
2.989663362503051758e+00,2.005887746810913086e+00,-2.486101984977722168e-01,2.000000000000000000e+00
3.087091445922851562e+00,1.979415059089660645e+00,-2.847524583339691162e-01,2.000000000000000000e+00
3.183439493179321289e+00,1.949168086051940918e+00,-3.267464637756347656e-01,2.000000000000000000e+00
3.278348207473754883e+00,1.914599418640136719e+00,-3.753654956817626953e-01,2.000000000000000000e+00
3.371342182159423828e+00,1.875125288963317871e+00,-4.314474463462829590e-01,2.000000000000000000e+00
3.461808204650878906e+00,1.830139160156250000e+00,-4.958914518356323242e-01,2.000000000000000000e+00
3.548976659774780273e+00,1.779028654098510742e+00,-5.695441961288452148e-01,2.000000000000000000e+00
3.631912946701049805e+00,1.721216678619384766e+00,-6.526204347610473633e-01,2.000000000000000000e+00
3.709550142288208008e+00,1.656294703483581543e+00,-7.440767884254455566e-01,2.000000000000000000e+00
3.780743598937988281e+00,1.584204196929931641e+00,-8.417722582817077637e-01,2.000000000000000000e+00
3.844366312026977539e+00,1.505351901054382324e+00,-9.431166648864746094e-01,2.000000000000000000e+00
3.899502277374267578e+00,1.420527338981628418e+00,-1.045056700706481934e+00,2.000000000000000000e+00
3.945681333541870117e+00,1.330733418464660645e+00,-1.143893718719482422e+00,2.000000000000000000e+00
3.982984542846679688e+00,1.236999988555908203e+00,-1.236579656600952148e+00,2.000000000000000000e+00
4.011807441711425781e+00,1.140302300453186035e+00,-1.321486234664916992e+00,2.000000000000000000e+00
4.032735824584960938e+00,1.041596770286560059e+00,-1.397922873497009277e+00,2.000000000000000000e+00
4.046498298645019531e+00,9.416336417198181152e-01,-1.463268160820007324e+00,2.000000000000000000e+00
4.047216415405273438e+00,8.011457920074462891e-01,-1.878734469413757324e+00,1.690169215202331543e+00
4.013213634490966797e+00,7.076668143272399902e-01,-1.961094379425048828e+00,1.684755921363830566e+00
3.971491813659667969e+00,6.173712015151977539e-01,-2.046781063079833984e+00,1.682735443115234375e+00
3.922062397003173828e+00,5.310558080673217773e-01,-2.135301351547241211e+00,1.682735443115234375e+00
3.865203142166137695e+00,4.494419395923614502e-01,-2.222509145736694336e+00,1.682735443115234375e+00
3.801638603210449219e+00,3.729301691055297852e-01,-2.304619312286376953e+00,1.687354803085327148e+00
3.732202529907226562e+00,3.016992807388305664e-01,-2.381395578384399414e+00,1.696985483169555664e+00
3.657669782638549805e+00,2.358154803514480591e-01,-2.453235626220703125e+00,1.710761666297912598e+00
3.578738451004028320e+00,1.752664744853973389e-01,-2.520484924316406250e+00,1.727977752685546875e+00
3.496034860610961914e+00,1.199771240353584290e-01,-2.583428144454956055e+00,1.748104929924011230e+00
3.410118341445922852e+00,6.982208788394927979e-02,-2.642305135726928711e+00,1.770735383033752441e+00
3.321485519409179688e+00,2.463587000966072083e-02,-2.697314023971557617e+00,1.795563578605651855e+00
3.230576038360595703e+00,-1.577900908887386322e-02,-2.748620748519897461e+00,1.822361946105957031e+00
3.137776374816894531e+00,-5.164543166756629944e-02,-2.796362876892089844e+00,1.850966691970825195e+00
3.043424367904663086e+00,-8.320631086826324463e-02,-2.840653657913208008e+00,1.881265282630920410e+00
2.947812318801879883e+00,-1.107202172279357910e-01,-2.881587028503417969e+00,1.913187026977539062e+00
2.851192474365234375e+00,-1.344578117132186890e-01,-2.919239282608032227e+00,1.946695566177368164e+00
2.753778934478759766e+00,-1.546989232301712036e-01,-2.953672885894775391e+00,1.981783509254455566e+00
2.655752658843994141e+00,-1.717302501201629639e-01,-2.984937906265258789e+00,2.000000000000000000e+00
2.557262897491455078e+00,-1.858433932065963745e-01,-3.013075113296508789e+00,2.000000000000000000e+00
2.458432197570800781e+00,-1.973334401845932007e-01,-3.038115739822387695e+00,2.000000000000000000e+00
2.359358310699462891e+00,-2.064977586269378662e-01,-3.060084819793701172e+00,2.000000000000000000e+00
2.260117053985595703e+00,-2.136351317167282104e-01,-3.079001426696777344e+00,2.000000000000000000e+00
2.160766363143920898e+00,-2.190451025962829590e-01,-3.094879388809204102e+00,2.000000000000000000e+00
2.061347723007202148e+00,-2.230275869369506836e-01,-3.107728719711303711e+00,2.000000000000000000e+00
1.961890101432800293e+00,-2.258826196193695068e-01,-3.117557764053344727e+00,2.000000000000000000e+00
1.862411856651306152e+00,-2.279008030891418457e-01,-3.124646663665771484e+00,2.000000000000000000e+00
1.762922883033752441e+00,-2.293062210083007812e-01,-3.130179882049560547e+00,2.000000000000000000e+00
1.663427948951721191e+00,-2.301872372627258301e-01,-3.135249376296997070e+00,2.000000000000000000e+00
1.563929915428161621e+00,-2.305777668952941895e-01,-3.140039682388305664e+00,2.000000000000000000e+00
1.464431047439575195e+00,-2.305054962635040283e-01,3.138633251190185547e+00,2.000000000000000000e+00
1.364933490753173828e+00,-2.299981117248535156e-01,3.134399414062500000e+00,2.000000000000000000e+00
1.265438795089721680e+00,-2.290832847356796265e-01,3.130443334579467773e+00,2.000000000000000000e+00
1.165948271751403809e+00,-2.277886867523193359e-01,3.126765251159667969e+00,2.000000000000000000e+00
1.066462993621826172e+00,-2.261420041322708130e-01,3.123365402221679688e+00,2.000000000000000000e+00
9.669835567474365234e-01,-2.241709083318710327e-01,3.120243072509765625e+00,2.000000000000000000e+00
8.675104975700378418e-01,-2.219030559062957764e-01,3.117398977279663086e+00,2.000000000000000000e+00
7.680439352989196777e-01,-2.193661034107208252e-01,3.114832639694213867e+00,2.000000000000000000e+00
6.685837507247924805e-01,-2.165877223014831543e-01,3.112544298171997070e+00,2.000000000000000000e+00
5.691298246383666992e-01,-2.135955542325973511e-01,3.110533475875854492e+00,2.000000000000000000e+00
4.696816802024841309e-01,-2.104172408580780029e-01,3.108800888061523438e+00,2.000000000000000000e+00
3.702386915683746338e-01,-2.070804387331008911e-01,3.107345819473266602e+00,2.000000000000000000e+00
2.708001732826232910e-01,-2.036127597093582153e-01,3.106168985366821289e+00,2.000000000000000000e+00
1.713653206825256348e-01,-2.000418752431869507e-01,3.105269908905029297e+00,2.000000000000000000e+00
7.193320244550704956e-02,-1.963953971862792969e-01,3.104648590087890625e+00,2.000000000000000000e+00
