# x,y,theta,velocity
3.321485519409179688e+00,2.463587000966072083e-02,-2.697314023971557617e+00,1.795563578605651855e+00
3.230576038360595703e+00,-1.577900908887386322e-02,-2.748620748519897461e+00,1.822361946105957031e+00
3.137776374816894531e+00,-5.164543166756629944e-02,-2.796362876892089844e+00,1.850966691970825195e+00
3.043424367904663086e+00,-8.320631086826324463e-02,-2.840653657913208008e+00,1.881265282630920410e+00
2.947812318801879883e+00,-1.107202172279357910e-01,-2.881587028503417969e+00,1.913187026977539062e+00
2.833477973937988281e+00,-1.227453351020812988e-01,3.021128892898559570e+00,2.000000000000000000e+00
2.733531713485717773e+00,-1.098358780145645142e-01,3.004970073699951172e+00,2.000000000000000000e+00
2.633809804916381836e+00,-9.529516100883483887e-02,2.988875389099121094e+00,2.000000000000000000e+00
2.534330844879150391e+00,-7.917575538158416748e-02,2.973318576812744141e+00,2.000000000000000000e+00
2.435109615325927734e+00,-6.153985857963562012e-02,2.958398103713989258e+00,2.000000000000000000e+00
2.336155891418457031e+00,-4.245953634381294250e-02,2.944215536117553711e+00,2.000000000000000000e+00
2.237473726272583008e+00,-2.201645262539386749e-02,2.930873870849609375e+00,2.000000000000000000e+00
2.139059782028198242e+00,-3.018666757270693779e-04,2.918478250503540039e+00,2.000000000000000000e+00
2.040908336639404297e+00,2.258259616792201996e-02,2.907134294509887695e+00,2.000000000000000000e+00
1.943009138107299805e+00,4.652509838342666626e-02,2.896947145462036133e+00,2.000000000000000000e+00
1.845345735549926758e+00,7.140404731035232544e-02,2.888023376464843750e+00,2.000000000000000000e+00
1.747894406318664551e+00,9.708856791257858276e-02,2.880468845367431641e+00,2.000000000000000000e+00
1.650623440742492676e+00,1.234387531876564026e-01,2.874386787414550781e+00,2.000000000000000000e+00
1.553494930267333984e+00,1.503058522939682007e-01,2.869875907897949219e+00,2.000000000000000000e+00
1.456466317176818848e+00,1.775323599576950073e-01,2.867030858993530273e+00,2.000000000000000000e+00
1.359491229057312012e+00,2.049519568681716919e-01,2.865946292877197266e+00,2.000000000000000000e+00
1.262520551681518555e+00,2.323892414569854736e-01,2.866717815399169922e+00,2.000000000000000000e+00
1.165502429008483887e+00,2.596594095230102539e-01,2.869438171386718750e+00,2.000000000000000000e+00
1.068384170532226562e+00,2.865686416625976562e-01,2.874187231063842773e+00,2.000000000000000000e+00
9.711121320724487305e-01,3.129158914089202881e-01,2.881023883819580078e+00,2.000000000000000000e+00
8.736345767974853516e-01,3.384948372840881348e-01,2.889987468719482422e+00,2.000000000000000000e+00
7.759025692939758301e-01,3.630950152873992920e-01,2.901111602783203125e+00,2.000000000000000000e+00
6.778730750083923340e-01,3.865007758140563965e-01,2.914438247680664062e+00,2.000000000000000000e+00
5.795120000839233398e-01,4.084894657135009766e-01,2.930013179779052734e+00,2.000000000000000000e+00
4.807962775230407715e-01,4.288317263126373291e-01,2.947842359542846680e+00,2.000000000000000000e+00
3.817147612571716309e-01,4.472995698451995850e-01,2.967839002609252930e+00,2.000000000000000000e+00
2.822672128677368164e-01,4.636782407760620117e-01,2.989819765090942383e+00,2.000000000000000000e+00
1.824647486209869385e-01,4.777746796607971191e-01,3.013594150543212891e+00,2.000000000000000000e+00
8.233305066823959351e-02,4.894102215766906738e-01,3.039090871810913086e+00,2.000000000000000000e+00
-1.808185502886772156e-02,4.984033703804016113e-01,3.066364765167236328e+00,2.000000000000000000e+00
-1.187099292874336243e-01,5.045628547668457031e-01,3.095269918441772461e+00,2.000000000000000000e+00
-2.194644212722778320e-01,5.077385902404785156e-01,3.124940395355224609e+00,2.000000000000000000e+00
-3.202578127384185791e-01,5.079193711280822754e-01,-3.129603862762451172e+00,2.000000000000000000e+00
-4.210177659988403320e-01,5.053220987319946289e-01,-3.104214906692504883e+00,2.000000000000000000e+00
-5.216961503028869629e-01,5.003865361213684082e-01,-3.083743333816528320e+00,2.000000000000000000e+00
-6.222702860832214355e-01,4.936667680740356445e-01,-3.068725824356079102e+00,2.000000000000000000e+00
-7.227432131767272949e-01,4.857109189033508301e-01,-3.058774471282958984e+00,2.000000000000000000e+00
-8.231402635574340820e-01,4.769929349422454834e-01,-3.053258657455444336e+00,2.000000000000000000e+00
-9.235010743141174316e-01,4.679308831691741943e-01,-3.051833868026733398e+00,2.000000000000000000e+00
-1.023869991302490234e+00,4.589271545410156250e-01,-3.054508686065673828e+00,2.000000000000000000e+00
-1.124287247657775879e+00,4.504012763500213623e-01,-3.061491489410400391e+00,2.000000000000000000e+00
-1.224784731864929199e+00,4.427991807460784912e-01,-3.073024511337280273e+00,2.000000000000000000e+00
-1.325382113456726074e+00,4.365909397602081299e-01,-3.089327096939086914e+00,2.000000000000000000e+00
-1.426083803176879883e+00,4.322685599327087402e-01,-3.110618114471435547e+00,2.000000000000000000e+00
-1.526870369911193848e+00,4.303479492664337158e-01,-3.137166261672973633e+00,2.000000000000000000e+00
-1.627684950828552246e+00,4.313762187957763672e-01,3.113854408264160156e+00,2.000000000000000000e+00
-1.728417754173278809e+00,4.359399378299713135e-01,3.075632572174072266e+00,2.000000000000000000e+00
-1.828891754150390625e+00,4.446671009063720703e-01,3.030914306640625000e+00,2.000000000000000000e+00
-1.928846716880798340e+00,4.582140743732452393e-01,2.979339599609375000e+00,2.000000000000000000e+00
-2.027924776077270508e+00,4.772472083568572998e-01,2.920685291290283203e+00,2.000000000000000000e+00
-2.125659227371215820e+00,5.024126768112182617e-01,2.855077505111694336e+00,2.000000000000000000e+00
-2.221475124359130859e+00,5.342713594436645508e-01,2.783225297927856445e+00,2.000000000000000000e+00
-2.314698219299316406e+00,5.732153654098510742e-01,2.706402301788330078e+00,2.000000000000000000e+00
-2.404576063156127930e+00,6.193982362747192383e-01,2.626220941543579102e+00,2.000000000000000000e+00
-2.490358591079711914e+00,6.727151274681091309e-01,2.544542312622070312e+00,2.000000000000000000e+00
-2.571409463882446289e+00,7.328141331672668457e-01,2.463538885116577148e+00,2.000000000000000000e+00
-2.647310972213745117e+00,7.991321086883544922e-01,2.385276556015014648e+00,2.000000000000000000e+00
-2.717908382415771484e+00,8.710307478904724121e-01,2.311255455017089844e+00,2.000000000000000000e+00
-2.783187150955200195e+00,9.478042125701904297e-01,2.242408990859985352e+00,2.000000000000000000e+00
-2.843253135681152344e+00,1.028720378875732422e+00,2.179221630096435547e+00,2.000000000000000000e+00
-2.898335933685302734e+00,1.113110661506652832e+00,2.121188402175903320e+00,2.000000000000000000e+00
-2.951452016830444336e+00,1.246233344078063965e+00,1.743923544883728027e+00,1.811543107032775879e+00
-2.965482711791992188e+00,1.344721436500549316e+00,1.680585980415344238e+00,1.796318769454956055e+00
-2.973216533660888672e+00,1.443902373313903809e+00,1.616498470306396484e+00,1.780462384223937988e+00
-2.974534273147583008e+00,1.543375015258789062e+00,1.551390528678894043e+00,1.764174461364746094e+00
-2.969314813613891602e+00,1.642718791961669922e+00,1.484978318214416504e+00,1.747922420501708984e+00
-2.957437515258789062e+00,1.741487145423889160e+00,1.416961073875427246e+00,1.732053756713867188e+00
-2.938783645629882812e+00,1.839201211929321289e+00,1.347017288208007812e+00,1.716922640800476074e+00
-2.913240432739257812e+00,1.935343384742736816e+00,1.274801254272460938e+00,1.702943444252014160e+00
-2.880705833435058594e+00,2.029348373413085938e+00,1.199936509132385254e+00,1.690613627433776855e+00
-2.841096162796020508e+00,2.120595932006835938e+00,1.122017264366149902e+00,1.680515408515930176e+00
-2.794353961944580078e+00,2.208401441574096680e+00,1.040580272674560547e+00,1.673411726951599121e+00
-2.740462541580200195e+00,2.292006254196166992e+00,9.551848769187927246e-01,1.670025348663330078e+00
-2.679484844207763672e+00,2.370588779449462891e+00,8.660013675689697266e-01,1.670025348663330078e+00
-2.611719846725463867e+00,2.443400382995605469e+00,7.772997021675109863e-01,1.670025348663330078e+00
-2.537934541702270508e+00,2.510108947753906250e+00,6.938647627830505371e-01,1.674356818199157715e+00
-2.459022045135498047e+00,2.570672273635864258e+00,6.162366867065429688e-01,1.684267640113830566e+00
-2.375793218612670898e+00,2.625158071517944336e+00,5.438885688781738281e-01,1.698585748672485352e+00
-2.288961887359619141e+00,2.673702955245971680e+00,4.764650166034698486e-01,1.716577529907226562e+00
-2.199153900146484375e+00,2.716497182846069336e+00,4.136286377906799316e-01,1.737691640853881836e+00
-2.106914520263671875e+00,2.753767728805541992e+00,3.550677001476287842e-01,1.761420488357543945e+00
-2.012714624404907227e+00,2.785768032073974609e+00,3.005399107933044434e-01,1.787410974502563477e+00
-1.916961431503295898e+00,2.812772512435913086e+00,2.498511672019958496e-01,1.815407752990722656e+00
-1.820002555847167969e+00,2.835071086883544922e+00,2.028495222330093384e-01,1.845236301422119141e+00
-1.722133636474609375e+00,2.852965116500854492e+00,1.594177633523941040e-01,1.876786947250366211e+00
-1.623602867126464844e+00,2.866765499114990234e+00,1.194681525230407715e-01,1.910001993179321289e+00
-1.524615406990051270e+00,2.876789331436157227e+00,8.293846994638442993e-02,1.944868087768554688e+00
-1.425337910652160645e+00,2.883359432220458984e+00,4.978810623288154602e-02,1.981409430503845215e+00
-1.325901985168457031e+00,2.886802434921264648e+00,1.999466679990291595e-02,2.000000000000000000e+00
-1.226407766342163086e+00,2.887448549270629883e+00,-6.449051201343536377e-03,2.000000000000000000e+00
-1.126927495002746582e+00,2.885630369186401367e+00,-2.953802421689033508e-02,2.000000000000000000e+00
-1.027508378028869629e+00,2.881683588027954102e+00,-4.925780743360519409e-02,2.000000000000000000e+00
-9.281760454177856445e-01,2.875945091247558594e+00,-6.558723002672195435e-02,2.000000000000000000e+00
-8.289378881454467773e-01,2.868754625320434570e+00,-7.850106805562973022e-02,2.000000000000000000e+00
-7.297862768173217773e-01,2.860453605651855469e+00,-8.797253668308258057e-02,2.000000000000000000e+00
-6.307017207145690918e-01,2.851385593414306641e+00,-9.397577494382858276e-02,2.000000000000000000e+00
-5.316566228866577148e-01,2.841895580291748047e+00,-9.648779034614562988e-02,2.000000000000000000e+00
-4.326187968254089355e-01,2.832330465316772461e+00,-9.549098461866378784e-02,2.000000000000000000e+00
-3.335551023483276367e-01,2.823038339614868164e+00,-9.097339957952499390e-02,2.000000000000000000e+00
-2.344352453947067261e-01,2.814368486404418945e+00,-8.293133229017257690e-02,2.000000000000000000e+00
-1.352356225252151489e-01,2.806669473648071289e+00,-7.140507549047470093e-02,2.000000000000000000e+00
-3.594313561916351318e-02,2.800282955169677734e+00,-5.650838837027549744e-02,2.000000000000000000e+00
6.343878060579299927e-02,2.795480728149414062e+00,-4.010539129376411438e-02,2.000000000000000000e+00
1.628851890563964844e-01,2.792269468307495117e+00,-2.476391196250915527e-02,2.000000000000000000e+00
2.623678147792816162e-01,2.790493488311767578e+00,-1.123703643679618835e-02,2.000000000000000000e+00
3.618651032447814941e-01,2.789974212646484375e+00,5.062941345386207104e-04,2.000000000000000000e+00
4.613623321056365967e-01,2.790535211563110352e+00,1.047400012612342834e-02,2.000000000000000000e+00
5.608505010604858398e-01,2.791999816894531250e+00,1.867049559950828552e-02,2.000000000000000000e+00
6.603254079818725586e-01,2.794191837310791016e+00,2.509791404008865356e-02,2.000000000000000000e+00
7.597866654396057129e-01,2.796935081481933594e+00,2.975522913038730621e-02,2.000000000000000000e+00
8.592369556427001953e-01,2.800053358078002930e+00,3.263922035694122314e-02,2.000000000000000000e+00
9.586807489395141602e-01,2.803369998931884766e+00,3.374435007572174072e-02,2.000000000000000000e+00
1.058123826980590820e+00,2.806707859039306641e+00,3.306328877806663513e-02,2.000000000000000000e+00
1.157572031021118164e+00,2.809888839721679688e+00,3.058718144893646240e-02,2.000000000000000000e+00
1.257030367851257324e+00,2.812733888626098633e+00,2.630570717155933380e-02,2.000000000000000000e+00
1.356501936912536621e+00,2.815062761306762695e+00,2.020744234323501587e-02,2.000000000000000000e+00
1.455987215042114258e+00,2.816694021224975586e+00,1.228008978068828583e-02,2.000000000000000000e+00
1.555482864379882812e+00,2.817445278167724609e+00,2.510544843971729279e-03,2.000000000000000000e+00
1.654980659484863281e+00,2.817132234573364258e+00,-9.114919230341911316e-03,2.000000000000000000e+00
1.754466533660888672e+00,2.815569400787353516e+00,-2.261059172451496124e-02,2.000000000000000000e+00
1.853919148445129395e+00,2.812570810317993164e+00,-3.799131140112876892e-02,2.000000000000000000e+00
1.953309297561645508e+00,2.807948589324951172e+00,-5.527247861027717590e-02,2.000000000000000000e+00
2.052598237991333008e+00,2.801514387130737305e+00,-7.447017729282379150e-02,2.000000000000000000e+00
2.151737213134765625e+00,2.793079853057861328e+00,-9.560135751962661743e-02,2.000000000000000000e+00
2.250664949417114258e+00,2.782456159591674805e+00,-1.186840534210205078e-01,2.000000000000000000e+00
2.349308013916015625e+00,2.769454717636108398e+00,-1.437377631664276123e-01,2.000000000000000000e+00
2.447578668594360352e+00,2.753888845443725586e+00,-1.707837432622909546e-01,2.000000000000000000e+00
2.545373678207397461e+00,2.735572814941406250e+00,-1.998456269502639771e-01,2.000000000000000000e+00
2.642572879791259766e+00,2.714323759078979492e+00,-2.309499830007553101e-01,2.000000000000000000e+00
2.739038705825805664e+00,2.689962625503540039e+00,-2.641269564628601074e-01,2.000000000000000000e+00
2.834614038467407227e+00,2.662314891815185547e+00,-2.994110584259033203e-01,2.000000000000000000e+00
2.929120540618896484e+00,2.631211757659912109e+00,-3.368420004844665527e-01,2.000000000000000000e+00
3.022358417510986328e+00,2.596492052078247070e+00,-3.764656484127044678e-01,1.991998791694641113e+00
3.114104032516479492e+00,2.558003902435302734e+00,-4.183350205421447754e-01,1.966001510620117188e+00
3.204108953475952148e+00,2.515606164932250977e+00,-4.625117480754852295e-01,1.941059589385986328e+00
3.292098045349121094e+00,2.469171524047851562e+00,-5.090671181678771973e-01,1.917242169380187988e+00
3.377768039703369141e+00,2.418587684631347656e+00,-5.580836534500122070e-01,1.894641995429992676e+00
3.460786342620849609e+00,2.363762378692626953e+00,-6.096568703651428223e-01,1.873380899429321289e+00
3.540788888931274414e+00,2.304624795913696289e+00,-6.638979315757751465e-01,1.853616476058959961e+00
3.617378473281860352e+00,2.241131782531738281e+00,-7.209345102310180664e-01,1.835545897483825684e+00
3.690124273300170898e+00,2.173270702362060547e+00,-7.809125781059265137e-01,1.819416761398315430e+00
3.758559465408325195e+00,2.101066827774047852e+00,-8.440009355545043945e-01,1.805539846420288086e+00
3.822180271148681641e+00,2.024589300155639648e+00,-9.103876352310180664e-01,1.794285893440246582e+00
3.880444288253784180e+00,1.943958520889282227e+00,-9.803717732429504395e-01,1.786318898200988770e+00
3.932760000228881836e+00,1.859349966049194336e+00,-1.054343700408935547e+00,1.782377839088439941e+00
3.978563547134399414e+00,1.771047115325927734e+00,-1.130164504051208496e+00,1.778511881828308105e+00
4.017581462860107422e+00,1.679542660713195801e+00,-1.205093860626220703e+00,1.773871421813964844e+00
4.049694061279296875e+00,1.585391998291015625e+00,-1.278944253921508789e+00,1.767402768135070801e+00
4.074807643890380859e+00,1.489137291908264160e+00,-1.352134466171264648e+00,1.759420752525329590e+00
4.092832088470458984e+00,1.391306757926940918e+00,-1.425051689147949219e+00,1.750192403793334961e+00
4.103678703308105469e+00,1.292422890663146973e+00,-1.498078227043151855e+00,1.740005016326904297e+00
4.107260704040527344e+00,1.193010807037353516e+00,-1.571596384048461914e+00,1.729152083396911621e+00
4.103490352630615234e+00,1.093606114387512207e+00,-1.645997762680053711e+00,1.718096256256103516e+00
4.092281341552734375e+00,9.947643280029296875e-01,-1.721691012382507324e+00,1.707547545433044434e+00
4.073549270629882812e+00,8.970697522163391113e-01,-1.799111008644104004e+00,1.698025226593017578e+00
4.047216415405273438e+00,8.011457920074462891e-01,-1.878734469413757324e+00,1.690169215202331543e+00
4.013213634490966797e+00,7.076668143272399902e-01,-1.961094379425048828e+00,1.684755921363830566e+00
3.971491813659667969e+00,6.173712015151977539e-01,-2.046781063079833984e+00,1.682735443115234375e+00
3.922062397003173828e+00,5.310558080673217773e-01,-2.135301351547241211e+00,1.682735443115234375e+00
3.865203142166137695e+00,4.494419395923614502e-01,-2.222509145736694336e+00,1.682735443115234375e+00
3.801638603210449219e+00,3.729301691055297852e-01,-2.304619312286376953e+00,1.687354803085327148e+00
3.732202529907226562e+00,3.016992807388305664e-01,-2.381395578384399414e+00,1.696985483169555664e+00
3.657669782638549805e+00,2.358154803514480591e-01,-2.453235626220703125e+00,1.710761666297912598e+00
3.578738451004028320e+00,1.752664744853973389e-01,-2.520484924316406250e+00,1.727977752685546875e+00
3.496034860610961914e+00,1.199771240353584290e-01,-2.583428144454956055e+00,1.748104929924011230e+00
3.410118341445922852e+00,6.982208788394927979e-02,-2.642305135726928711e+00,1.770735383033752441e+00
