# x,y,theta,velocity
3.578738451004028320e+00,1.752664744853973389e-01,-2.520484924316406250e+00,1.727977752685546875e+00
3.496034860610961914e+00,1.199771240353584290e-01,-2.583428144454956055e+00,1.748104929924011230e+00
3.410118341445922852e+00,6.982208788394927979e-02,-2.642305135726928711e+00,1.770735383033752441e+00
3.321485519409179688e+00,2.463587000966072083e-02,-2.697314023971557617e+00,1.795563578605651855e+00
3.230576038360595703e+00,-1.577900908887386322e-02,-2.748620748519897461e+00,1.822361946105957031e+00
3.130034446716308594e+00,-2.468320541083812714e-02,-3.102789163589477539e+00,2.000000000000000000e+00
3.028980731964111328e+00,-2.821171469986438751e-02,-3.110699176788330078e+00,2.000000000000000000e+00
2.927901983261108398e+00,-3.092977777123451233e-02,-3.118571758270263672e+00,2.000000000000000000e+00
2.826805353164672852e+00,-3.286680951714515686e-02,-3.126156806945800781e+00,2.000000000000000000e+00
2.725697040557861328e+00,-3.405125066637992859e-02,-3.133464097976684570e+00,2.000000000000000000e+00
2.624582767486572266e+00,-3.451062738895416260e-02,-3.140503168106079102e+00,2.000000000000000000e+00
2.523467540740966797e+00,-3.427156433463096619e-02,3.135902166366577148e+00,2.000000000000000000e+00
2.422355175018310547e+00,-3.335985541343688965e-02,3.129373550415039062e+00,2.000000000000000000e+00
2.321249246597290039e+00,-3.180050477385520935e-02,3.123088121414184570e+00,2.000000000000000000e+00
2.220154285430908203e+00,-2.961780503392219543e-02,3.117038965225219727e+00,2.000000000000000000e+00
2.119073867797851562e+00,-2.683535590767860413e-02,3.111218929290771484e+00,2.000000000000000000e+00
2.018011808395385742e+00,-2.347611263394355774e-02,3.105622053146362305e+00,2.000000000000000000e+00
1.916970491409301758e+00,-1.956241577863693237e-02,3.100241899490356445e+00,2.000000000000000000e+00
1.815951824188232422e+00,-1.511603221297264099e-02,3.095073938369750977e+00,2.000000000000000000e+00
1.714957118034362793e+00,-1.015821099281311035e-02,3.090112686157226562e+00,2.000000000000000000e+00
1.613987684249877930e+00,-4.709714092314243317e-03,3.085353612899780273e+00,2.000000000000000000e+00
1.513044595718383789e+00,1.209132140502333641e-03,3.080792903900146484e+00,2.000000000000000000e+00
1.412128686904907227e+00,7.578399963676929474e-03,3.076426506042480469e+00,2.000000000000000000e+00
1.311241149902343750e+00,1.437852252274751663e-02,3.072251319885253906e+00,2.000000000000000000e+00
1.210382342338562012e+00,2.159025333821773529e-02,3.068264007568359375e+00,2.000000000000000000e+00
1.109552502632141113e+00,2.919462323188781738e-02,3.064462661743164062e+00,2.000000000000000000e+00
1.008751749992370605e+00,3.717290982604026794e-02,3.060845136642456055e+00,2.000000000000000000e+00
9.079798460006713867e-01,4.550658538937568665e-02,3.057409524917602539e+00,2.000000000000000000e+00
8.072364330291748047e-01,5.417727306485176086e-02,3.054154872894287109e+00,2.000000000000000000e+00
7.065209150314331055e-01,6.316671520471572876e-02,3.051080465316772461e+00,2.000000000000000000e+00
6.058327555656433105e-01,7.245672494173049927e-02,3.048185348510742188e+00,2.000000000000000000e+00
5.051711201667785645e-01,8.202913403511047363e-02,3.045470237731933594e+00,2.000000000000000000e+00
4.045349955558776855e-01,9.186574071645736694e-02,3.042935609817504883e+00,2.000000000000000000e+00
3.039233386516571045e-01,1.019482985138893127e-01,3.040582656860351562e+00,2.000000000000000000e+00
2.033347636461257935e-01,1.122583970427513123e-01,3.038412809371948242e+00,2.000000000000000000e+00
1.027678921818733215e-01,1.227774769067764282e-01,3.036428213119506836e+00,2.000000000000000000e+00
2.221109345555305481e-03,1.334867030382156372e-01,3.034632205963134766e+00,2.000000000000000000e+00
-9.830728173255920410e-02,1.443669497966766357e-01,3.033027887344360352e+00,2.000000000000000000e+00
-1.988191306591033936e-01,1.553987264633178711e-01,3.031619787216186523e+00,2.000000000000000000e+00
-2.993164360523223877e-01,1.665620505809783936e-01,3.030412673950195312e+00,2.000000000000000000e+00
-3.998012840747833252e-01,1.778364479541778564e-01,3.029412508010864258e+00,2.000000000000000000e+00
-5.002759695053100586e-01,1.892007738351821899e-01,3.028626203536987305e+00,2.000000000000000000e+00
-6.007429361343383789e-01,2.006331682205200195e-01,3.028061628341674805e+00,2.000000000000000000e+00
-7.012047171592712402e-01,2.121109217405319214e-01,3.027728080749511719e+00,2.000000000000000000e+00
-8.016639947891235352e-01,2.236103564500808716e-01,3.027635574340820312e+00,2.000000000000000000e+00
-9.021236896514892578e-01,2.351066768169403076e-01,3.027796506881713867e+00,2.000000000000000000e+00
-1.002586722373962402e+00,2.465737909078598022e-01,3.028224229812622070e+00,2.000000000000000000e+00
-1.103056192398071289e+00,2.579841911792755127e-01,3.028934240341186523e+00,2.000000000000000000e+00
-1.203535437583923340e+00,2.693085968494415283e-01,3.029944896697998047e+00,2.000000000000000000e+00
-1.304027795791625977e+00,2.805159091949462891e-01,3.031276464462280273e+00,2.000000000000000000e+00
-1.404536724090576172e+00,2.915727198123931885e-01,3.032952308654785156e+00,2.000000000000000000e+00
-1.505066275596618652e+00,3.024431467056274414e-01,3.034999370574951172e+00,2.000000000000000000e+00
-1.605620026588439941e+00,3.130883574485778809e-01,3.037449359893798828e+00,2.000000000000000000e+00
-1.706201910972595215e+00,3.234661519527435303e-01,3.040337562561035156e+00,2.000000000000000000e+00
-1.806815743446350098e+00,3.335303664207458496e-01,3.043706417083740234e+00,2.000000000000000000e+00
-1.907465219497680664e+00,3.432302474975585938e-01,3.047605037689208984e+00,2.000000000000000000e+00
-2.008154153823852539e+00,3.525096178054809570e-01,3.052090883255004883e+00,2.000000000000000000e+00
-2.108886003494262695e+00,3.613060414791107178e-01,3.057231903076171875e+00,2.000000000000000000e+00
-2.209664583206176758e+00,3.695496320724487305e-01,3.063108921051025391e+00,2.000000000000000000e+00
-2.310492992401123047e+00,3.771614730358123779e-01,3.069818735122680664e+00,2.000000000000000000e+00
-2.411373138427734375e+00,3.840519189834594727e-01,3.076166629791259766e+00,2.000000000000000000e+00
-2.490709066390991211e+00,3.836683630943298340e-01,2.391213893890380859e+00,1.893377900123596191e+00
-2.561078071594238281e+00,4.539841115474700928e-01,2.322034835815429688e+00,1.892040491104125977e+00
-2.626455545425415039e+00,5.289645195007324219e-01,2.254015922546386719e+00,1.890028119087219238e+00
-2.686650037765502930e+00,6.081669330596923828e-01,2.187568902969360352e+00,1.885917901992797852e+00
-2.741508960723876953e+00,6.911554336547851562e-01,2.122410535812377930e+00,1.879863977432250977e+00
-2.790893793106079102e+00,7.775140404701232910e-01,2.058268547058105469e+00,1.872026324272155762e+00
-2.834677457809448242e+00,8.668433427810668945e-01,1.994883775711059570e+00,1.862560510635375977e+00
-2.872740030288696289e+00,9.587565064430236816e-01,1.932004094123840332e+00,1.851621031761169434e+00
-2.904966115951538086e+00,1.052875161170959473e+00,1.869382143020629883e+00,1.839364171028137207e+00
-2.931241273880004883e+00,1.148825287818908691e+00,1.806771278381347656e+00,1.825949668884277344e+00
-2.951452016830444336e+00,1.246233344078063965e+00,1.743923544883728027e+00,1.811543107032775879e+00
-2.965482711791992188e+00,1.344721436500549316e+00,1.680585980415344238e+00,1.796318769454956055e+00
-2.973216533660888672e+00,1.443902373313903809e+00,1.616498470306396484e+00,1.780462384223937988e+00
-2.974534273147583008e+00,1.543375015258789062e+00,1.551390528678894043e+00,1.764174461364746094e+00
-2.969314813613891602e+00,1.642718791961669922e+00,1.484978318214416504e+00,1.747922420501708984e+00
-2.957437515258789062e+00,1.741487145423889160e+00,1.416961073875427246e+00,1.732053756713867188e+00
-2.938783645629882812e+00,1.839201211929321289e+00,1.347017288208007812e+00,1.716922640800476074e+00
-2.913240432739257812e+00,1.935343384742736816e+00,1.274801254272460938e+00,1.702943444252014160e+00
-2.880705833435058594e+00,2.029348373413085938e+00,1.199936509132385254e+00,1.690613627433776855e+00
-2.841096162796020508e+00,2.120595932006835938e+00,1.122017264366149902e+00,1.680515408515930176e+00
-2.794353961944580078e+00,2.208401441574096680e+00,1.040580272674560547e+00,1.673411726951599121e+00
-2.740462541580200195e+00,2.292006254196166992e+00,9.551848769187927246e-01,1.670025348663330078e+00
-2.679484844207763672e+00,2.370588779449462891e+00,8.660013675689697266e-01,1.670025348663330078e+00
-2.611719846725463867e+00,2.443400382995605469e+00,7.772997021675109863e-01,1.670025348663330078e+00
-2.537934541702270508e+00,2.510108947753906250e+00,6.938647627830505371e-01,1.674356818199157715e+00
-2.459022045135498047e+00,2.570672273635864258e+00,6.162366867065429688e-01,1.684267640113830566e+00
-2.375793218612670898e+00,2.625158071517944336e+00,5.438885688781738281e-01,1.698585748672485352e+00
-2.288961887359619141e+00,2.673702955245971680e+00,4.764650166034698486e-01,1.716577529907226562e+00
-2.199153900146484375e+00,2.716497182846069336e+00,4.136286377906799316e-01,1.737691640853881836e+00
-2.106914520263671875e+00,2.753767728805541992e+00,3.550677001476287842e-01,1.761420488357543945e+00
-2.012714624404907227e+00,2.785768032073974609e+00,3.005399107933044434e-01,1.787410974502563477e+00
-1.916961431503295898e+00,2.812772512435913086e+00,2.498511672019958496e-01,1.815407752990722656e+00
-1.820002555847167969e+00,2.835071086883544922e+00,2.028495222330093384e-01,1.845236301422119141e+00
-1.722133636474609375e+00,2.852965116500854492e+00,1.594177633523941040e-01,1.876786947250366211e+00
-1.623602867126464844e+00,2.866765499114990234e+00,1.194681525230407715e-01,1.910001993179321289e+00
-1.524615406990051270e+00,2.876789331436157227e+00,8.293846994638442993e-02,1.944868087768554688e+00
-1.425337910652160645e+00,2.883359432220458984e+00,4.978810623288154602e-02,1.981409430503845215e+00
-1.325901985168457031e+00,2.886802434921264648e+00,1.999466679990291595e-02,2.000000000000000000e+00
-1.226407766342163086e+00,2.887448549270629883e+00,-6.449051201343536377e-03,2.000000000000000000e+00
-1.126927495002746582e+00,2.885630369186401367e+00,-2.953802421689033508e-02,2.000000000000000000e+00
-1.027508378028869629e+00,2.881683588027954102e+00,-4.925780743360519409e-02,2.000000000000000000e+00
-9.281760454177856445e-01,2.875945091247558594e+00,-6.558723002672195435e-02,2.000000000000000000e+00
-8.289378881454467773e-01,2.868754625320434570e+00,-7.850106805562973022e-02,2.000000000000000000e+00
-7.297862768173217773e-01,2.860453605651855469e+00,-8.797253668308258057e-02,2.000000000000000000e+00
-6.307017207145690918e-01,2.851385593414306641e+00,-9.397577494382858276e-02,2.000000000000000000e+00
-5.316566228866577148e-01,2.841895580291748047e+00,-9.648779034614562988e-02,2.000000000000000000e+00
-4.326187968254089355e-01,2.832330465316772461e+00,-9.549098461866378784e-02,2.000000000000000000e+00
-3.335551023483276367e-01,2.823038339614868164e+00,-9.097339957952499390e-02,2.000000000000000000e+00
-2.344352453947067261e-01,2.814368486404418945e+00,-8.293133229017257690e-02,2.000000000000000000e+00
-1.352356225252151489e-01,2.806669473648071289e+00,-7.140507549047470093e-02,2.000000000000000000e+00
-3.594313561916351318e-02,2.800282955169677734e+00,-5.650838837027549744e-02,2.000000000000000000e+00
6.343878060579299927e-02,2.795480728149414062e+00,-4.010539129376411438e-02,2.000000000000000000e+00
1.628851890563964844e-01,2.792269468307495117e+00,-2.476391196250915527e-02,2.000000000000000000e+00
2.623678147792816162e-01,2.790493488311767578e+00,-1.123703643679618835e-02,2.000000000000000000e+00
3.618651032447814941e-01,2.789974212646484375e+00,5.062941345386207104e-04,2.000000000000000000e+00
4.613623321056365967e-01,2.790535211563110352e+00,1.047400012612342834e-02,2.000000000000000000e+00
5.608505010604858398e-01,2.791999816894531250e+00,1.867049559950828552e-02,2.000000000000000000e+00
6.603254079818725586e-01,2.794191837310791016e+00,2.509791404008865356e-02,2.000000000000000000e+00
7.597866654396057129e-01,2.796935081481933594e+00,2.975522913038730621e-02,2.000000000000000000e+00
8.592369556427001953e-01,2.800053358078002930e+00,3.263922035694122314e-02,2.000000000000000000e+00
9.586807489395141602e-01,2.803369998931884766e+00,3.374435007572174072e-02,2.000000000000000000e+00
1.058123826980590820e+00,2.806707859039306641e+00,3.306328877806663513e-02,2.000000000000000000e+00
1.157572031021118164e+00,2.809888839721679688e+00,3.058718144893646240e-02,2.000000000000000000e+00
1.257030367851257324e+00,2.812733888626098633e+00,2.630570717155933380e-02,2.000000000000000000e+00
1.356501936912536621e+00,2.815062761306762695e+00,2.020744234323501587e-02,2.000000000000000000e+00
1.455987215042114258e+00,2.816694021224975586e+00,1.228008978068828583e-02,2.000000000000000000e+00
1.555482864379882812e+00,2.817445278167724609e+00,2.510544843971729279e-03,2.000000000000000000e+00
1.654980659484863281e+00,2.817132234573364258e+00,-9.114919230341911316e-03,2.000000000000000000e+00
1.754466533660888672e+00,2.815569400787353516e+00,-2.261059172451496124e-02,2.000000000000000000e+00
1.853919148445129395e+00,2.812570810317993164e+00,-3.799131140112876892e-02,2.000000000000000000e+00
1.953309297561645508e+00,2.807948589324951172e+00,-5.527247861027717590e-02,2.000000000000000000e+00
2.052598237991333008e+00,2.801514387130737305e+00,-7.447017729282379150e-02,2.000000000000000000e+00
2.151737213134765625e+00,2.793079853057861328e+00,-9.560135751962661743e-02,2.000000000000000000e+00
2.250664949417114258e+00,2.782456159591674805e+00,-1.186840534210205078e-01,2.000000000000000000e+00
2.349308013916015625e+00,2.769454717636108398e+00,-1.437377631664276123e-01,2.000000000000000000e+00
2.447578668594360352e+00,2.753888845443725586e+00,-1.707837432622909546e-01,2.000000000000000000e+00
2.545373678207397461e+00,2.735572814941406250e+00,-1.998456269502639771e-01,2.000000000000000000e+00
2.642572879791259766e+00,2.714323759078979492e+00,-2.309499830007553101e-01,2.000000000000000000e+00
2.739038705825805664e+00,2.689962625503540039e+00,-2.641269564628601074e-01,2.000000000000000000e+00
2.834614038467407227e+00,2.662314891815185547e+00,-2.994110584259033203e-01,2.000000000000000000e+00
2.929120540618896484e+00,2.631211757659912109e+00,-3.368420004844665527e-01,2.000000000000000000e+00
3.022358417510986328e+00,2.596492052078247070e+00,-3.764656484127044678e-01,1.991998791694641113e+00
3.114104032516479492e+00,2.558003902435302734e+00,-4.183350205421447754e-01,1.966001510620117188e+00
3.204108953475952148e+00,2.515606164932250977e+00,-4.625117480754852295e-01,1.941059589385986328e+00
3.292098045349121094e+00,2.469171524047851562e+00,-5.090671181678771973e-01,1.917242169380187988e+00
3.377768039703369141e+00,2.418587684631347656e+00,-5.580836534500122070e-01,1.894641995429992676e+00
3.460786342620849609e+00,2.363762378692626953e+00,-6.096568703651428223e-01,1.873380899429321289e+00
3.540788888931274414e+00,2.304624795913696289e+00,-6.638979315757751465e-01,1.853616476058959961e+00
3.617378473281860352e+00,2.241131782531738281e+00,-7.209345102310180664e-01,1.835545897483825684e+00
3.690124273300170898e+00,2.173270702362060547e+00,-7.809125781059265137e-01,1.819416761398315430e+00
3.758559465408325195e+00,2.101066827774047852e+00,-8.440009355545043945e-01,1.805539846420288086e+00
3.822180271148681641e+00,2.024589300155639648e+00,-9.103876352310180664e-01,1.794285893440246582e+00
3.880444288253784180e+00,1.943958520889282227e+00,-9.803717732429504395e-01,1.786318898200988770e+00
3.932760000228881836e+00,1.859349966049194336e+00,-1.054343700408935547e+00,1.782377839088439941e+00
3.978563547134399414e+00,1.771047115325927734e+00,-1.130164504051208496e+00,1.778511881828308105e+00
4.017581462860107422e+00,1.679542660713195801e+00,-1.205093860626220703e+00,1.773871421813964844e+00
4.049694061279296875e+00,1.585391998291015625e+00,-1.278944253921508789e+00,1.767402768135070801e+00
4.074807643890380859e+00,1.489137291908264160e+00,-1.352134466171264648e+00,1.759420752525329590e+00
4.092832088470458984e+00,1.391306757926940918e+00,-1.425051689147949219e+00,1.750192403793334961e+00
4.103678703308105469e+00,1.292422890663146973e+00,-1.498078227043151855e+00,1.740005016326904297e+00
4.107260704040527344e+00,1.193010807037353516e+00,-1.571596384048461914e+00,1.729152083396911621e+00
4.103490352630615234e+00,1.093606114387512207e+00,-1.645997762680053711e+00,1.718096256256103516e+00
4.092281341552734375e+00,9.947643280029296875e-01,-1.721691012382507324e+00,1.707547545433044434e+00
4.073549270629882812e+00,8.970697522163391113e-01,-1.799111008644104004e+00,1.698025226593017578e+00
4.047216415405273438e+00,8.011457920074462891e-01,-1.878734469413757324e+00,1.690169215202331543e+00
4.013213634490966797e+00,7.076668143272399902e-01,-1.961094379425048828e+00,1.684755921363830566e+00
3.971491813659667969e+00,6.173712015151977539e-01,-2.046781063079833984e+00,1.682735443115234375e+00
3.922062397003173828e+00,5.310558080673217773e-01,-2.135301351547241211e+00,1.682735443115234375e+00
3.865203142166137695e+00,4.494419395923614502e-01,-2.222509145736694336e+00,1.682735443115234375e+00
3.801638603210449219e+00,3.729301691055297852e-01,-2.304619312286376953e+00,1.687354803085327148e+00
3.732202529907226562e+00,3.016992807388305664e-01,-2.381395578384399414e+00,1.696985483169555664e+00
3.657669782638549805e+00,2.358154803514480591e-01,-2.453235626220703125e+00,1.710761666297912598e+00
