# x,y,theta,velocity
4.107260704040527344e+00,1.193010807037353516e+00,-1.571596384048461914e+00,1.729152083396911621e+00
4.103490352630615234e+00,1.093606114387512207e+00,-1.645997762680053711e+00,1.718096256256103516e+00
4.092281341552734375e+00,9.947643280029296875e-01,-1.721691012382507324e+00,1.707547545433044434e+00
4.073549270629882812e+00,8.970697522163391113e-01,-1.799111008644104004e+00,1.698025226593017578e+00
4.047216415405273438e+00,8.011457920074462891e-01,-1.878734469413757324e+00,1.690169215202331543e+00
3.894829511642456055e+00,7.162677645683288574e-01,-2.299578428268432617e+00,2.000000000000000000e+00
3.825919151306152344e+00,6.434222459793090820e-01,-2.349730253219604492e+00,2.000000000000000000e+00
3.753970861434936523e+00,5.735759735107421875e-01,-2.392750978469848633e+00,2.000000000000000000e+00
3.679055690765380859e+00,5.069221258163452148e-01,-2.436533451080322266e+00,2.000000000000000000e+00
3.601275205612182617e+00,4.436360001564025879e-01,-2.480819225311279297e+00,2.000000000000000000e+00
3.520757198333740234e+00,3.838694393634796143e-01,-2.525543451309204102e+00,2.000000000000000000e+00
3.437555074691772461e+00,3.277283906936645508e-01,-2.570560455322265625e+00,2.000000000000000000e+00
3.351729869842529297e+00,2.752820551395416260e-01,-2.615381002426147461e+00,2.000000000000000000e+00
3.263398647308349609e+00,2.265716046094894409e-01,-2.659489631652832031e+00,2.000000000000000000e+00
3.172726869583129883e+00,1.816121786832809448e-01,-2.702489376068115234e+00,2.000000000000000000e+00
3.079919815063476562e+00,1.403941810131072998e-01,-2.744095087051391602e+00,2.000000000000000000e+00
2.985212802886962891e+00,1.028849929571151733e-01,-2.784117937088012695e+00,2.000000000000000000e+00
2.888863563537597656e+00,6.903043389320373535e-02,-2.822448015213012695e+00,2.000000000000000000e+00
2.791142463684082031e+00,3.875632211565971375e-02,-2.859036922454833984e+00,2.000000000000000000e+00
2.692322969436645508e+00,1.197003200650215149e-02,-2.893879175186157227e+00,2.000000000000000000e+00
2.592673540115356445e+00,-1.143798604607582092e-02,-2.926998138427734375e+00,2.000000000000000000e+00
2.492448568344116211e+00,-3.159265220165252686e-02,-2.958431243896484375e+00,2.000000000000000000e+00
2.391878604888916016e+00,-4.863271117210388184e-02,-2.988218069076538086e+00,2.000000000000000000e+00
2.291162490844726562e+00,-6.270920485258102417e-02,-3.016389608383178711e+00,2.000000000000000000e+00
2.190456867218017578e+00,-7.398390769958496094e-02,-3.042960643768310547e+00,2.000000000000000000e+00
2.089869022369384766e+00,-8.262781053781509399e-02,-3.067920923233032227e+00,2.000000000000000000e+00
1.989446520805358887e+00,-8.881954848766326904e-02,-3.091233968734741211e+00,2.000000000000000000e+00
1.889173865318298340e+00,-9.274311363697052002e-02,-3.112851858139038086e+00,2.000000000000000000e+00
1.788991570472717285e+00,-9.458237886428833008e-02,-3.132755756378173828e+00,2.000000000000000000e+00
1.688829302787780762e+00,-9.451358020305633545e-02,3.132185935974121094e+00,2.000000000000000000e+00
1.588639974594116211e+00,-9.269766509532928467e-02,3.115459918975830078e+00,2.000000000000000000e+00
1.488423943519592285e+00,-8.927527070045471191e-02,3.100065231323242188e+00,2.000000000000000000e+00
1.388220071792602539e+00,-8.436997979879379272e-02,3.085847377777099609e+00,2.000000000000000000e+00
1.288081765174865723e+00,-7.809557765722274780e-02,3.072727203369140625e+00,2.000000000000000000e+00
1.188051342964172363e+00,-7.056343555450439453e-02,3.060704469680786133e+00,2.000000000000000000e+00
1.088144183158874512e+00,-6.188764795660972595e-02,3.049818515777587891e+00,2.000000000000000000e+00
9.883524775505065918e-01,-5.218461900949478149e-02,3.040095329284667969e+00,2.000000000000000000e+00
8.886575102806091309e-01,-4.157047346234321594e-02,3.031527996063232422e+00,2.000000000000000000e+00
7.890421748161315918e-01,-3.015856258571147919e-02,3.024081945419311523e+00,2.000000000000000000e+00
6.894966363906860352e-01,-1.805860735476016998e-02,3.017723321914672852e+00,2.000000000000000000e+00
5.900163650512695312e-01,-5.378500558435916901e-03,3.012441158294677734e+00,2.000000000000000000e+00
4.905973672866821289e-01,7.773332763463258743e-03,3.008253097534179688e+00,2.000000000000000000e+00
3.912316262722015381e-01,2.128557860851287842e-02,3.005202531814575195e+00,2.000000000000000000e+00
2.919054627418518066e-01,3.504223003983497620e-02,3.003348350524902344e+00,2.000000000000000000e+00
1.926004588603973389e-01,4.892146587371826172e-02,3.002758026123046875e+00,2.000000000000000000e+00
9.329558908939361572e-02,6.279468536376953125e-02,3.003507137298583984e+00,2.000000000000000000e+00
-6.031178403645753860e-03,7.652529329061508179e-02,3.005687475204467773e+00,2.000000000000000000e+00
-1.054015904664993286e-01,8.996613323688507080e-02,3.009422063827514648e+00,2.000000000000000000e+00
-2.048364728689193726e-01,1.029555946588516235e-01,3.014871597290039062e+00,2.000000000000000000e+00
-3.043550848960876465e-01,1.153135597705841064e-01,3.022237300872802734e+00,2.000000000000000000e+00
-4.039745628833770752e-01,1.268373131752014160e-01,3.031768560409545898e+00,2.000000000000000000e+00
-5.037094950675964355e-01,1.372959464788436890e-01,3.043787956237792969e+00,2.000000000000000000e+00
-6.035718321800231934e-01,1.464213579893112183e-01,3.058714151382446289e+00,2.000000000000000000e+00
-7.035711407661437988e-01,1.538982242345809937e-01,3.077074050903320312e+00,2.000000000000000000e+00
-8.037111163139343262e-01,1.593519896268844604e-01,3.099544048309326172e+00,2.000000000000000000e+00
-9.039726853370666504e-01,1.623297929763793945e-01,3.127010583877563477e+00,2.000000000000000000e+00
-1.004289031028747559e+00,1.622770428657531738e-01,-3.122552871704101562e+00,2.000000000000000000e+00
-1.104522347450256348e+00,1.585109233856201172e-01,-3.081240892410278320e+00,1.955517292022705078e+00
-1.204451203346252441e+00,1.501822322607040405e-01,-3.030217885971069336e+00,1.887401461601257324e+00
-1.303740501403808594e+00,1.362308412790298462e-01,-2.966898441314697266e+00,1.817356228828430176e+00
-1.401800632476806641e+00,1.153514087200164795e-01,-2.922861099243164062e+00,1.772210478782653809e+00
-1.393129706382751465e+00,9.239496290683746338e-02,3.082288265228271484e+00,2.000000000000000000e+00
-1.492697119712829590e+00,9.782460331916809082e-02,3.092686653137207031e+00,2.000000000000000000e+00
-1.592316746711730957e+00,1.021441668272018433e-01,3.104666948318481445e+00,2.000000000000000000e+00
-1.691980838775634766e+00,1.051866263151168823e-01,3.118424415588378906e+00,2.000000000000000000e+00
-1.791679143905639648e+00,1.067638546228408813e-01,3.134191751480102539e+00,2.000000000000000000e+00
-1.891389489173889160e+00,1.066624745726585388e-01,-3.130938053131103516e+00,2.000000000000000000e+00
-1.991079211235046387e+00,1.046392321586608887e-01,-3.113068580627441406e+00,2.000000000000000000e+00
-2.079523324966430664e+00,1.069471165537834167e-01,2.691334962844848633e+00,1.938598155975341797e+00
-2.167941331863403320e+00,1.525546759366989136e-01,2.638818979263305664e+00,1.922426104545593262e+00
-2.253752231597900391e+00,2.028932124376296997e-01,2.582702159881591797e+00,1.909422755241394043e+00
-2.336499691009521484e+00,2.581194937229156494e-01,2.522806644439697266e+00,1.900028109550476074e+00
-2.415672540664672852e+00,3.183552622795104980e-01,2.458922147750854492e+00,1.894784212112426758e+00
-2.490709066390991211e+00,3.836683630943298340e-01,2.391213893890380859e+00,1.893377900123596191e+00
-2.561078071594238281e+00,4.539841115474700928e-01,2.322034835815429688e+00,1.892040491104125977e+00
-2.626455545425415039e+00,5.289645195007324219e-01,2.254015922546386719e+00,1.890028119087219238e+00
-2.686650037765502930e+00,6.081669330596923828e-01,2.187568902969360352e+00,1.885917901992797852e+00
-2.741508960723876953e+00,6.911554336547851562e-01,2.122410535812377930e+00,1.879863977432250977e+00
-2.790893793106079102e+00,7.775140404701232910e-01,2.058268547058105469e+00,1.872026324272155762e+00
-2.834677457809448242e+00,8.668433427810668945e-01,1.994883775711059570e+00,1.862560510635375977e+00
-2.872740030288696289e+00,9.587565064430236816e-01,1.932004094123840332e+00,1.851621031761169434e+00
-2.904966115951538086e+00,1.052875161170959473e+00,1.869382143020629883e+00,1.839364171028137207e+00
-2.931241273880004883e+00,1.148825287818908691e+00,1.806771278381347656e+00,1.825949668884277344e+00
-2.951452016830444336e+00,1.246233344078063965e+00,1.743923544883728027e+00,1.811543107032775879e+00
-2.965482711791992188e+00,1.344721436500549316e+00,1.680585980415344238e+00,1.796318769454956055e+00
-2.973216533660888672e+00,1.443902373313903809e+00,1.616498470306396484e+00,1.780462384223937988e+00
-2.974534273147583008e+00,1.543375015258789062e+00,1.551390528678894043e+00,1.764174461364746094e+00
-2.969314813613891602e+00,1.642718791961669922e+00,1.484978318214416504e+00,1.747922420501708984e+00
-2.957437515258789062e+00,1.741487145423889160e+00,1.416961073875427246e+00,1.732053756713867188e+00
-2.938783645629882812e+00,1.839201211929321289e+00,1.347017288208007812e+00,1.716922640800476074e+00
-2.913240432739257812e+00,1.935343384742736816e+00,1.274801254272460938e+00,1.702943444252014160e+00
-2.880705833435058594e+00,2.029348373413085938e+00,1.199936509132385254e+00,1.690613627433776855e+00
-2.841096162796020508e+00,2.120595932006835938e+00,1.122017264366149902e+00,1.680515408515930176e+00
-2.794353961944580078e+00,2.208401441574096680e+00,1.040580272674560547e+00,1.673411726951599121e+00
-2.740462541580200195e+00,2.292006254196166992e+00,9.551848769187927246e-01,1.670025348663330078e+00
-2.679484844207763672e+00,2.370588779449462891e+00,8.660013675689697266e-01,1.670025348663330078e+00
-2.611719846725463867e+00,2.443400382995605469e+00,7.772997021675109863e-01,1.670025348663330078e+00
-2.537934541702270508e+00,2.510108947753906250e+00,6.938647627830505371e-01,1.674356818199157715e+00
-2.459022045135498047e+00,2.570672273635864258e+00,6.162366867065429688e-01,1.684267640113830566e+00
-2.375793218612670898e+00,2.625158071517944336e+00,5.438885688781738281e-01,1.698585748672485352e+00
-2.288961887359619141e+00,2.673702955245971680e+00,4.764650166034698486e-01,1.716577529907226562e+00
-2.199153900146484375e+00,2.716497182846069336e+00,4.136286377906799316e-01,1.737691640853881836e+00
-2.106914520263671875e+00,2.753767728805541992e+00,3.550677001476287842e-01,1.761420488357543945e+00
-2.012714624404907227e+00,2.785768032073974609e+00,3.005399107933044434e-01,1.787410974502563477e+00
-1.916961431503295898e+00,2.812772512435913086e+00,2.498511672019958496e-01,1.815407752990722656e+00
-1.820002555847167969e+00,2.835071086883544922e+00,2.028495222330093384e-01,1.845236301422119141e+00
-1.722133636474609375e+00,2.852965116500854492e+00,1.594177633523941040e-01,1.876786947250366211e+00
-1.623602867126464844e+00,2.866765499114990234e+00,1.194681525230407715e-01,1.910001993179321289e+00
-1.524615406990051270e+00,2.876789331436157227e+00,8.293846994638442993e-02,1.944868087768554688e+00
-1.425337910652160645e+00,2.883359432220458984e+00,4.978810623288154602e-02,1.981409430503845215e+00
-1.325901985168457031e+00,2.886802434921264648e+00,1.999466679990291595e-02,2.000000000000000000e+00
-1.226407766342163086e+00,2.887448549270629883e+00,-6.449051201343536377e-03,2.000000000000000000e+00
-1.126927495002746582e+00,2.885630369186401367e+00,-2.953802421689033508e-02,2.000000000000000000e+00
-1.027508378028869629e+00,2.881683588027954102e+00,-4.925780743360519409e-02,2.000000000000000000e+00
-9.281760454177856445e-01,2.875945091247558594e+00,-6.558723002672195435e-02,2.000000000000000000e+00
-8.289378881454467773e-01,2.868754625320434570e+00,-7.850106805562973022e-02,2.000000000000000000e+00
-7.297862768173217773e-01,2.860453605651855469e+00,-8.797253668308258057e-02,2.000000000000000000e+00
-6.307017207145690918e-01,2.851385593414306641e+00,-9.397577494382858276e-02,2.000000000000000000e+00
-5.316566228866577148e-01,2.841895580291748047e+00,-9.648779034614562988e-02,2.000000000000000000e+00
-4.326187968254089355e-01,2.832330465316772461e+00,-9.549098461866378784e-02,2.000000000000000000e+00
-3.335551023483276367e-01,2.823038339614868164e+00,-9.097339957952499390e-02,2.000000000000000000e+00
-2.344352453947067261e-01,2.814368486404418945e+00,-8.293133229017257690e-02,2.000000000000000000e+00
-1.352356225252151489e-01,2.806669473648071289e+00,-7.140507549047470093e-02,2.000000000000000000e+00
-3.594313561916351318e-02,2.800282955169677734e+00,-5.650838837027549744e-02,2.000000000000000000e+00
6.343878060579299927e-02,2.795480728149414062e+00,-4.010539129376411438e-02,2.000000000000000000e+00
1.628851890563964844e-01,2.792269468307495117e+00,-2.476391196250915527e-02,2.000000000000000000e+00
2.623678147792816162e-01,2.790493488311767578e+00,-1.123703643679618835e-02,2.000000000000000000e+00
3.618651032447814941e-01,2.789974212646484375e+00,5.062941345386207104e-04,2.000000000000000000e+00
4.613623321056365967e-01,2.790535211563110352e+00,1.047400012612342834e-02,2.000000000000000000e+00
5.608505010604858398e-01,2.791999816894531250e+00,1.867049559950828552e-02,2.000000000000000000e+00
6.603254079818725586e-01,2.794191837310791016e+00,2.509791404008865356e-02,2.000000000000000000e+00
7.597866654396057129e-01,2.796935081481933594e+00,2.975522913038730621e-02,2.000000000000000000e+00
8.592369556427001953e-01,2.800053358078002930e+00,3.263922035694122314e-02,2.000000000000000000e+00
9.586807489395141602e-01,2.803369998931884766e+00,3.374435007572174072e-02,2.000000000000000000e+00
1.058123826980590820e+00,2.806707859039306641e+00,3.306328877806663513e-02,2.000000000000000000e+00
1.157572031021118164e+00,2.809888839721679688e+00,3.058718144893646240e-02,2.000000000000000000e+00
1.257030367851257324e+00,2.812733888626098633e+00,2.630570717155933380e-02,2.000000000000000000e+00
1.356501936912536621e+00,2.815062761306762695e+00,2.020744234323501587e-02,2.000000000000000000e+00
1.455987215042114258e+00,2.816694021224975586e+00,1.228008978068828583e-02,2.000000000000000000e+00
1.555482864379882812e+00,2.817445278167724609e+00,2.510544843971729279e-03,2.000000000000000000e+00
1.654980659484863281e+00,2.817132234573364258e+00,-9.114919230341911316e-03,2.000000000000000000e+00
1.754466533660888672e+00,2.815569400787353516e+00,-2.261059172451496124e-02,2.000000000000000000e+00
1.853919148445129395e+00,2.812570810317993164e+00,-3.799131140112876892e-02,2.000000000000000000e+00
1.953309297561645508e+00,2.807948589324951172e+00,-5.527247861027717590e-02,2.000000000000000000e+00
2.052598237991333008e+00,2.801514387130737305e+00,-7.447017729282379150e-02,2.000000000000000000e+00
2.151737213134765625e+00,2.793079853057861328e+00,-9.560135751962661743e-02,2.000000000000000000e+00
2.250664949417114258e+00,2.782456159591674805e+00,-1.186840534210205078e-01,2.000000000000000000e+00
2.349308013916015625e+00,2.769454717636108398e+00,-1.437377631664276123e-01,2.000000000000000000e+00
2.447578668594360352e+00,2.753888845443725586e+00,-1.707837432622909546e-01,2.000000000000000000e+00
2.545373678207397461e+00,2.735572814941406250e+00,-1.998456269502639771e-01,2.000000000000000000e+00
2.642572879791259766e+00,2.714323759078979492e+00,-2.309499830007553101e-01,2.000000000000000000e+00
2.739038705825805664e+00,2.689962625503540039e+00,-2.641269564628601074e-01,2.000000000000000000e+00
2.834614038467407227e+00,2.662314891815185547e+00,-2.994110584259033203e-01,2.000000000000000000e+00
2.929120540618896484e+00,2.631211757659912109e+00,-3.368420004844665527e-01,2.000000000000000000e+00
3.022358417510986328e+00,2.596492052078247070e+00,-3.764656484127044678e-01,1.991998791694641113e+00
3.114104032516479492e+00,2.558003902435302734e+00,-4.183350205421447754e-01,1.966001510620117188e+00
3.204108953475952148e+00,2.515606164932250977e+00,-4.625117480754852295e-01,1.941059589385986328e+00
3.292098045349121094e+00,2.469171524047851562e+00,-5.090671181678771973e-01,1.917242169380187988e+00
3.377768039703369141e+00,2.418587684631347656e+00,-5.580836534500122070e-01,1.894641995429992676e+00
3.460786342620849609e+00,2.363762378692626953e+00,-6.096568703651428223e-01,1.873380899429321289e+00
3.540788888931274414e+00,2.304624795913696289e+00,-6.638979315757751465e-01,1.853616476058959961e+00
3.617378473281860352e+00,2.241131782531738281e+00,-7.209345102310180664e-01,1.835545897483825684e+00
3.690124273300170898e+00,2.173270702362060547e+00,-7.809125781059265137e-01,1.819416761398315430e+00
3.758559465408325195e+00,2.101066827774047852e+00,-8.440009355545043945e-01,1.805539846420288086e+00
3.822180271148681641e+00,2.024589300155639648e+00,-9.103876352310180664e-01,1.794285893440246582e+00
3.880444288253784180e+00,1.943958520889282227e+00,-9.803717732429504395e-01,1.786318898200988770e+00
3.932760000228881836e+00,1.859349966049194336e+00,-1.054343700408935547e+00,1.782377839088439941e+00
3.978563547134399414e+00,1.771047115325927734e+00,-1.130164504051208496e+00,1.778511881828308105e+00
4.017581462860107422e+00,1.679542660713195801e+00,-1.205093860626220703e+00,1.773871421813964844e+00
4.049694061279296875e+00,1.585391998291015625e+00,-1.278944253921508789e+00,1.767402768135070801e+00
4.074807643890380859e+00,1.489137291908264160e+00,-1.352134466171264648e+00,1.759420752525329590e+00
4.092832088470458984e+00,1.391306757926940918e+00,-1.425051689147949219e+00,1.750192403793334961e+00
4.103678703308105469e+00,1.292422890663146973e+00,-1.498078227043151855e+00,1.740005016326904297e+00
