# x,y,theta,velocity
3.922062397003173828e+00,5.310558080673217773e-01,-2.135301351547241211e+00,1.682735443115234375e+00
3.865203142166137695e+00,4.494419395923614502e-01,-2.222509145736694336e+00,1.682735443115234375e+00
3.801638603210449219e+00,3.729301691055297852e-01,-2.304619312286376953e+00,1.687354803085327148e+00
3.732202529907226562e+00,3.016992807388305664e-01,-2.381395578384399414e+00,1.696985483169555664e+00
3.657669782638549805e+00,2.358154803514480591e-01,-2.453235626220703125e+00,1.710761666297912598e+00
3.546852588653564453e+00,1.790228337049484253e-01,-2.856540441513061523e+00,2.000000000000000000e+00
3.450642347335815430e+00,1.527888774871826172e-01,-2.896529912948608398e+00,2.000000000000000000e+00
3.353409528732299805e+00,1.306447833776473999e-01,-2.938154220581054688e+00,2.000000000000000000e+00
3.255351066589355469e+00,1.125017926096916199e-01,-2.978307723999023438e+00,2.000000000000000000e+00
3.156654596328735352e+00,9.822911024093627930e-02,-3.016691207885742188e+00,2.000000000000000000e+00
3.057493686676025391e+00,8.765980601310729980e-02,-3.053068876266479492e+00,2.000000000000000000e+00
2.958007335662841797e+00,8.059804141521453857e-02,-3.087257623672485352e+00,2.000000000000000000e+00
2.858315467834472656e+00,7.682680338621139526e-02,-3.119118928909301758e+00,2.000000000000000000e+00
2.758537292480468750e+00,7.611443847417831421e-02,3.134608507156372070e+00,2.000000000000000000e+00
2.658779859542846680e+00,7.822040468454360962e-02,3.107573986053466797e+00,2.000000000000000000e+00
2.559125661849975586e+00,8.290078490972518921e-02,3.082950115203857422e+00,2.000000000000000000e+00
2.459625959396362305e+00,8.991269022226333618e-02,3.060710668563842773e+00,2.000000000000000000e+00
2.360306739807128906e+00,9.901682287454605103e-02,3.040815353393554688e+00,2.000000000000000000e+00
2.261178255081176758e+00,1.099796891212463379e-01,3.023203849792480469e+00,2.000000000000000000e+00
2.162242650985717773e+00,1.225755736231803894e-01,3.007797241210937500e+00,2.000000000000000000e+00
2.063496112823486328e+00,1.365876197814941406e-01,2.994508743286132812e+00,2.000000000000000000e+00
1.964930057525634766e+00,1.518081724643707275e-01,2.983250617980957031e+00,2.000000000000000000e+00
1.866528868675231934e+00,1.680391281843185425e-01,2.973937511444091797e+00,2.000000000000000000e+00
1.768270492553710938e+00,1.850915700197219849e-01,2.966494798660278320e+00,2.000000000000000000e+00
1.670127749443054199e+00,2.027843445539474487e-01,2.960863113403320312e+00,2.000000000000000000e+00
1.572070360183715820e+00,2.209419310092926025e-01,2.956998586654663086e+00,2.000000000000000000e+00
1.474067211151123047e+00,2.393926829099655151e-01,2.954866170883178711e+00,2.000000000000000000e+00
1.376087546348571777e+00,2.579684555530548096e-01,2.954420804977416992e+00,2.000000000000000000e+00
1.278101444244384766e+00,2.765063643455505371e-01,2.955598115921020508e+00,2.000000000000000000e+00
1.180079698562622070e+00,2.948511242866516113e-01,2.958314418792724609e+00,2.000000000000000000e+00
1.081995010375976562e+00,3.128563165664672852e-01,2.962491750717163086e+00,2.000000000000000000e+00
9.838213920593261719e-01,3.303819000720977783e-01,2.968100070953369141e+00,2.000000000000000000e+00
8.855354189872741699e-01,3.472867608070373535e-01,2.975183010101318359e+00,2.000000000000000000e+00
7.871165871620178223e-01,3.634210228919982910e-01,2.983839273452758789e+00,2.000000000000000000e+00
6.885484457015991211e-01,3.786225020885467529e-01,2.994104862213134766e+00,2.000000000000000000e+00
5.898198485374450684e-01,3.927327096462249756e-01,3.005789279937744141e+00,2.000000000000000000e+00
4.909272491931915283e-01,4.056263267993927002e-01,3.018402576446533203e+00,2.000000000000000000e+00
3.918766975402832031e-01,4.172414541244506836e-01,3.031202793121337891e+00,2.000000000000000000e+00
2.926847040653228760e-01,4.275996088981628418e-01,3.043416738510131836e+00,2.000000000000000000e+00
1.933752894401550293e-01,4.367923736572265625e-01,3.054495573043823242e+00,2.000000000000000000e+00
9.397492557764053345e-02,4.449505805969238281e-01,3.064203739166259766e+00,2.000000000000000000e+00
-5.492519121617078781e-03,4.522133469581604004e-01,3.072579860687255859e+00,2.000000000000000000e+00
-1.050093844532966614e-01,4.587048590183258057e-01,3.079784631729125977e+00,2.000000000000000000e+00
-2.045638859272003174e-01,4.645332396030426025e-01,3.085942029953002930e+00,2.000000000000000000e+00
-3.041480779647827148e-01,4.697985053062438965e-01,3.091092824935913086e+00,2.000000000000000000e+00
-4.037558436393737793e-01,4.746009707450866699e-01,3.095206022262573242e+00,2.000000000000000000e+00
-5.033813118934631348e-01,4.790468811988830566e-01,3.098223447799682617e+00,2.000000000000000000e+00
-6.030184626579284668e-01,4.832482337951660156e-01,3.100100755691528320e+00,2.000000000000000000e+00
-7.026615142822265625e-01,4.873201549053192139e-01,3.100818872451782227e+00,2.000000000000000000e+00
-8.023048639297485352e-01,4.913783967494964600e-01,3.100376844406127930e+00,2.000000000000000000e+00
-9.019430875778198242e-01,4.955383539199829102e-01,3.098770856857299805e+00,2.000000000000000000e+00
-1.001570940017700195e+00,4.999165534973144531e-01,3.095976591110229492e+00,2.000000000000000000e+00
-1.101182699203491211e+00,5.046331882476806641e-01,3.091945886611938477e+00,2.000000000000000000e+00
-1.200771927833557129e+00,5.098143815994262695e-01,3.086610078811645508e+00,2.000000000000000000e+00
-1.300330400466918945e+00,5.155938863754272461e-01,3.079889297485351562e+00,2.000000000000000000e+00
-1.399846911430358887e+00,5.221135616302490234e-01,3.071697711944580078e+00,2.000000000000000000e+00
-1.499304771423339844e+00,5.295238494873046875e-01,3.061944723129272461e+00,2.000000000000000000e+00
-1.598680734634399414e+00,5.379838943481445312e-01,3.050526618957519531e+00,2.000000000000000000e+00
-1.697943925857543945e+00,5.476632714271545410e-01,3.037318944931030273e+00,2.000000000000000000e+00
-1.797057271003723145e+00,5.587446689605712891e-01,3.022170066833496094e+00,2.000000000000000000e+00
-1.895977497100830078e+00,5.714260339736938477e-01,3.004905939102172852e+00,2.000000000000000000e+00
-1.994654536247253418e+00,5.859230756759643555e-01,2.985335826873779297e+00,2.000000000000000000e+00
-2.093023300170898438e+00,6.024688482284545898e-01,2.963258028030395508e+00,2.000000000000000000e+00
-2.190992355346679688e+00,6.213128566741943359e-01,2.938452482223510742e+00,2.000000000000000000e+00
-2.288433551788330078e+00,6.427197456359863281e-01,2.910669803619384766e+00,2.000000000000000000e+00
-2.385185003280639648e+00,6.669708490371704102e-01,2.879639863967895508e+00,2.000000000000000000e+00
-2.481070518493652344e+00,6.943683028221130371e-01,2.845100402832031250e+00,2.000000000000000000e+00
-2.575896739959716797e+00,7.252326607704162598e-01,2.806805849075317383e+00,2.000000000000000000e+00
-2.669403314590454102e+00,7.598859071731567383e-01,2.764532566070556641e+00,2.000000000000000000e+00
-2.761282920837402344e+00,7.986470460891723633e-01,2.723990917205810547e+00,2.000000000000000000e+00
-2.834677457809448242e+00,8.668433427810668945e-01,1.994883775711059570e+00,1.862560510635375977e+00
-2.872740030288696289e+00,9.587565064430236816e-01,1.932004094123840332e+00,1.851621031761169434e+00
-2.904966115951538086e+00,1.052875161170959473e+00,1.869382143020629883e+00,1.839364171028137207e+00
-2.931241273880004883e+00,1.148825287818908691e+00,1.806771278381347656e+00,1.825949668884277344e+00
-2.951452016830444336e+00,1.246233344078063965e+00,1.743923544883728027e+00,1.811543107032775879e+00
-2.965482711791992188e+00,1.344721436500549316e+00,1.680585980415344238e+00,1.796318769454956055e+00
-2.973216533660888672e+00,1.443902373313903809e+00,1.616498470306396484e+00,1.780462384223937988e+00
-2.974534273147583008e+00,1.543375015258789062e+00,1.551390528678894043e+00,1.764174461364746094e+00
-2.969314813613891602e+00,1.642718791961669922e+00,1.484978318214416504e+00,1.747922420501708984e+00
-2.957437515258789062e+00,1.741487145423889160e+00,1.416961073875427246e+00,1.732053756713867188e+00
-2.938783645629882812e+00,1.839201211929321289e+00,1.347017288208007812e+00,1.716922640800476074e+00
-2.913240432739257812e+00,1.935343384742736816e+00,1.274801254272460938e+00,1.702943444252014160e+00
-2.880705833435058594e+00,2.029348373413085938e+00,1.199936509132385254e+00,1.690613627433776855e+00
-2.841096162796020508e+00,2.120595932006835938e+00,1.122017264366149902e+00,1.680515408515930176e+00
-2.794353961944580078e+00,2.208401441574096680e+00,1.040580272674560547e+00,1.673411726951599121e+00
-2.740462541580200195e+00,2.292006254196166992e+00,9.551848769187927246e-01,1.670025348663330078e+00
-2.679484844207763672e+00,2.370588779449462891e+00,8.660013675689697266e-01,1.670025348663330078e+00
-2.611719846725463867e+00,2.443400382995605469e+00,7.772997021675109863e-01,1.670025348663330078e+00
-2.537934541702270508e+00,2.510108947753906250e+00,6.938647627830505371e-01,1.674356818199157715e+00
-2.459022045135498047e+00,2.570672273635864258e+00,6.162366867065429688e-01,1.684267640113830566e+00
-2.375793218612670898e+00,2.625158071517944336e+00,5.438885688781738281e-01,1.698585748672485352e+00
-2.288961887359619141e+00,2.673702955245971680e+00,4.764650166034698486e-01,1.716577529907226562e+00
-2.199153900146484375e+00,2.716497182846069336e+00,4.136286377906799316e-01,1.737691640853881836e+00
-2.106914520263671875e+00,2.753767728805541992e+00,3.550677001476287842e-01,1.761420488357543945e+00
-2.012714624404907227e+00,2.785768032073974609e+00,3.005399107933044434e-01,1.787410974502563477e+00
-1.916961431503295898e+00,2.812772512435913086e+00,2.498511672019958496e-01,1.815407752990722656e+00
-1.820002555847167969e+00,2.835071086883544922e+00,2.028495222330093384e-01,1.845236301422119141e+00
-1.722133636474609375e+00,2.852965116500854492e+00,1.594177633523941040e-01,1.876786947250366211e+00
-1.623602867126464844e+00,2.866765499114990234e+00,1.194681525230407715e-01,1.910001993179321289e+00
-1.524615406990051270e+00,2.876789331436157227e+00,8.293846994638442993e-02,1.944868087768554688e+00
-1.425337910652160645e+00,2.883359432220458984e+00,4.978810623288154602e-02,1.981409430503845215e+00
-1.325901985168457031e+00,2.886802434921264648e+00,1.999466679990291595e-02,2.000000000000000000e+00
-1.226407766342163086e+00,2.887448549270629883e+00,-6.449051201343536377e-03,2.000000000000000000e+00
-1.126927495002746582e+00,2.885630369186401367e+00,-2.953802421689033508e-02,2.000000000000000000e+00
-1.027508378028869629e+00,2.881683588027954102e+00,-4.925780743360519409e-02,2.000000000000000000e+00
-9.281760454177856445e-01,2.875945091247558594e+00,-6.558723002672195435e-02,2.000000000000000000e+00
-8.289378881454467773e-01,2.868754625320434570e+00,-7.850106805562973022e-02,2.000000000000000000e+00
-7.297862768173217773e-01,2.860453605651855469e+00,-8.797253668308258057e-02,2.000000000000000000e+00
-6.307017207145690918e-01,2.851385593414306641e+00,-9.397577494382858276e-02,2.000000000000000000e+00
-5.316566228866577148e-01,2.841895580291748047e+00,-9.648779034614562988e-02,2.000000000000000000e+00
-4.326187968254089355e-01,2.832330465316772461e+00,-9.549098461866378784e-02,2.000000000000000000e+00
-3.335551023483276367e-01,2.823038339614868164e+00,-9.097339957952499390e-02,2.000000000000000000e+00
-2.344352453947067261e-01,2.814368486404418945e+00,-8.293133229017257690e-02,2.000000000000000000e+00
-1.352356225252151489e-01,2.806669473648071289e+00,-7.140507549047470093e-02,2.000000000000000000e+00
-3.594313561916351318e-02,2.800282955169677734e+00,-5.650838837027549744e-02,2.000000000000000000e+00
6.343878060579299927e-02,2.795480728149414062e+00,-4.010539129376411438e-02,2.000000000000000000e+00
1.628851890563964844e-01,2.792269468307495117e+00,-2.476391196250915527e-02,2.000000000000000000e+00
2.623678147792816162e-01,2.790493488311767578e+00,-1.123703643679618835e-02,2.000000000000000000e+00
3.618651032447814941e-01,2.789974212646484375e+00,5.062941345386207104e-04,2.000000000000000000e+00
4.613623321056365967e-01,2.790535211563110352e+00,1.047400012612342834e-02,2.000000000000000000e+00
5.608505010604858398e-01,2.791999816894531250e+00,1.867049559950828552e-02,2.000000000000000000e+00
6.603254079818725586e-01,2.794191837310791016e+00,2.509791404008865356e-02,2.000000000000000000e+00
7.597866654396057129e-01,2.796935081481933594e+00,2.975522913038730621e-02,2.000000000000000000e+00
8.592369556427001953e-01,2.800053358078002930e+00,3.263922035694122314e-02,2.000000000000000000e+00
9.586807489395141602e-01,2.803369998931884766e+00,3.374435007572174072e-02,2.000000000000000000e+00
1.058123826980590820e+00,2.806707859039306641e+00,3.306328877806663513e-02,2.000000000000000000e+00
1.157572031021118164e+00,2.809888839721679688e+00,3.058718144893646240e-02,2.000000000000000000e+00
1.257030367851257324e+00,2.812733888626098633e+00,2.630570717155933380e-02,2.000000000000000000e+00
1.356501936912536621e+00,2.815062761306762695e+00,2.020744234323501587e-02,2.000000000000000000e+00
1.455987215042114258e+00,2.816694021224975586e+00,1.228008978068828583e-02,2.000000000000000000e+00
1.555482864379882812e+00,2.817445278167724609e+00,2.510544843971729279e-03,2.000000000000000000e+00
1.654980659484863281e+00,2.817132234573364258e+00,-9.114919230341911316e-03,2.000000000000000000e+00
1.754466533660888672e+00,2.815569400787353516e+00,-2.261059172451496124e-02,2.000000000000000000e+00
1.853919148445129395e+00,2.812570810317993164e+00,-3.799131140112876892e-02,2.000000000000000000e+00
1.953309297561645508e+00,2.807948589324951172e+00,-5.527247861027717590e-02,2.000000000000000000e+00
2.052598237991333008e+00,2.801514387130737305e+00,-7.447017729282379150e-02,2.000000000000000000e+00
2.151737213134765625e+00,2.793079853057861328e+00,-9.560135751962661743e-02,2.000000000000000000e+00
2.250664949417114258e+00,2.782456159591674805e+00,-1.186840534210205078e-01,2.000000000000000000e+00
2.349308013916015625e+00,2.769454717636108398e+00,-1.437377631664276123e-01,2.000000000000000000e+00
2.447578668594360352e+00,2.753888845443725586e+00,-1.707837432622909546e-01,2.000000000000000000e+00
2.545373678207397461e+00,2.735572814941406250e+00,-1.998456269502639771e-01,2.000000000000000000e+00
2.642572879791259766e+00,2.714323759078979492e+00,-2.309499830007553101e-01,2.000000000000000000e+00
2.739038705825805664e+00,2.689962625503540039e+00,-2.641269564628601074e-01,2.000000000000000000e+00
2.834614038467407227e+00,2.662314891815185547e+00,-2.994110584259033203e-01,2.000000000000000000e+00
2.929120540618896484e+00,2.631211757659912109e+00,-3.368420004844665527e-01,2.000000000000000000e+00
3.022358417510986328e+00,2.596492052078247070e+00,-3.764656484127044678e-01,1.991998791694641113e+00
3.114104032516479492e+00,2.558003902435302734e+00,-4.183350205421447754e-01,1.966001510620117188e+00
3.204108953475952148e+00,2.515606164932250977e+00,-4.625117480754852295e-01,1.941059589385986328e+00
3.292098045349121094e+00,2.469171524047851562e+00,-5.090671181678771973e-01,1.917242169380187988e+00
3.377768039703369141e+00,2.418587684631347656e+00,-5.580836534500122070e-01,1.894641995429992676e+00
3.460786342620849609e+00,2.363762378692626953e+00,-6.096568703651428223e-01,1.873380899429321289e+00
3.540788888931274414e+00,2.304624795913696289e+00,-6.638979315757751465e-01,1.853616476058959961e+00
3.617378473281860352e+00,2.241131782531738281e+00,-7.209345102310180664e-01,1.835545897483825684e+00
3.690124273300170898e+00,2.173270702362060547e+00,-7.809125781059265137e-01,1.819416761398315430e+00
3.758559465408325195e+00,2.101066827774047852e+00,-8.440009355545043945e-01,1.805539846420288086e+00
3.822180271148681641e+00,2.024589300155639648e+00,-9.103876352310180664e-01,1.794285893440246582e+00
3.880444288253784180e+00,1.943958520889282227e+00,-9.803717732429504395e-01,1.786318898200988770e+00
3.932760000228881836e+00,1.859349966049194336e+00,-1.054343700408935547e+00,1.782377839088439941e+00
3.978563547134399414e+00,1.771047115325927734e+00,-1.130164504051208496e+00,1.778511881828308105e+00
4.017581462860107422e+00,1.679542660713195801e+00,-1.205093860626220703e+00,1.773871421813964844e+00
4.049694061279296875e+00,1.585391998291015625e+00,-1.278944253921508789e+00,1.767402768135070801e+00
4.074807643890380859e+00,1.489137291908264160e+00,-1.352134466171264648e+00,1.759420752525329590e+00
4.092832088470458984e+00,1.391306757926940918e+00,-1.425051689147949219e+00,1.750192403793334961e+00
4.103678703308105469e+00,1.292422890663146973e+00,-1.498078227043151855e+00,1.740005016326904297e+00
4.107260704040527344e+00,1.193010807037353516e+00,-1.571596384048461914e+00,1.729152083396911621e+00
4.103490352630615234e+00,1.093606114387512207e+00,-1.645997762680053711e+00,1.718096256256103516e+00
4.092281341552734375e+00,9.947643280029296875e-01,-1.721691012382507324e+00,1.707547545433044434e+00
4.073549270629882812e+00,8.970697522163391113e-01,-1.799111008644104004e+00,1.698025226593017578e+00
4.047216415405273438e+00,8.011457920074462891e-01,-1.878734469413757324e+00,1.690169215202331543e+00
4.013213634490966797e+00,7.076668143272399902e-01,-1.961094379425048828e+00,1.684755921363830566e+00
3.971491813659667969e+00,6.173712015151977539e-01,-2.046781063079833984e+00,1.682735443115234375e+00
