# x,y,theta,velocity
2.655752658843994141e+00,-1.717302501201629639e-01,-2.984937906265258789e+00,2.000000000000000000e+00
2.557262897491455078e+00,-1.858433932065963745e-01,-3.013075113296508789e+00,2.000000000000000000e+00
2.458432197570800781e+00,-1.973334401845932007e-01,-3.038115739822387695e+00,2.000000000000000000e+00
2.359358310699462891e+00,-2.064977586269378662e-01,-3.060084819793701172e+00,2.000000000000000000e+00
2.260117053985595703e+00,-2.136351317167282104e-01,-3.079001426696777344e+00,2.000000000000000000e+00
2.150834560394287109e+00,-2.193583548069000244e-01,2.971753597259521484e+00,2.000000000000000000e+00
2.052240848541259766e+00,-2.024837285280227661e-01,2.972424030303955078e+00,2.000000000000000000e+00
1.953635573387145996e+00,-1.856765151023864746e-01,2.973109960556030273e+00,2.000000000000000000e+00
1.855018734931945801e+00,-1.689371913671493530e-01,2.973800420761108398e+00,2.000000000000000000e+00
1.756390333175659180e+00,-1.522661745548248291e-01,2.974494934082031250e+00,2.000000000000000000e+00
1.657750368118286133e+00,-1.356638520956039429e-01,2.975193262100219727e+00,2.000000000000000000e+00
1.559098839759826660e+00,-1.191305816173553467e-01,2.975894212722778320e+00,2.000000000000000000e+00
1.460435628890991211e+00,-1.026665344834327698e-01,2.976597547531127930e+00,2.000000000000000000e+00
1.361760854721069336e+00,-8.627207577228546143e-02,2.977304935455322266e+00,2.000000000000000000e+00
1.263074517250061035e+00,-6.994763016700744629e-02,2.978015899658203125e+00,2.000000000000000000e+00
1.164376497268676758e+00,-5.369350686669349670e-02,2.978728055953979492e+00,2.000000000000000000e+00
1.065666913986206055e+00,-3.750962764024734497e-02,2.979437351226806641e+00,2.000000000000000000e+00
9.669460058212280273e-01,-2.139553613960742950e-02,2.980141878128051758e+00,2.000000000000000000e+00
8.682137727737426758e-01,-5.350742489099502563e-03,2.980843067169189453e+00,2.000000000000000000e+00
7.694703340530395508e-01,1.062486600130796432e-02,2.981546878814697266e+00,2.000000000000000000e+00
6.707156300544738770e-01,2.653069607913494110e-02,2.982258081436157227e+00,2.000000000000000000e+00
5.719495415687561035e-01,4.236581921577453613e-02,2.982975244522094727e+00,2.000000000000000000e+00
4.731721580028533936e-01,5.812998861074447632e-02,2.983685731887817383e+00,2.000000000000000000e+00
3.743837177753448486e-01,7.382474094629287720e-02,2.984371423721313477e+00,2.000000000000000000e+00
2.755847871303558350e-01,8.945342153310775757e-02,2.985025882720947266e+00,2.000000000000000000e+00
1.767758280038833618e-01,1.050188988447189331e-01,2.985668897628784180e+00,2.000000000000000000e+00
7.795679569244384766e-02,1.205204799771308899e-01,2.986340999603271484e+00,2.000000000000000000e+00
-2.087298966944217682e-02,1.359531581401824951e-01,2.987063646316528320e+00,2.000000000000000000e+00
-1.197142153978347778e-01,1.513118594884872437e-01,2.987807035446166992e+00,2.000000000000000000e+00
-2.185666859149932861e-01,1.665975600481033325e-01,2.988487482070922852e+00,2.000000000000000000e+00
-3.174286782741546631e-01,1.818217635154724121e-01,2.989025354385375977e+00,2.000000000000000000e+00
-4.162976741790771484e-01,1.970011293888092041e-01,2.989440679550170898e+00,2.000000000000000000e+00
-5.151725411415100098e-01,2.121432274580001831e-01,2.989894866943359375e+00,2.000000000000000000e+00
-6.140554547309875488e-01,2.272327989339828491e-01,2.990584135055541992e+00,2.000000000000000000e+00
-7.129509449005126953e-01,2.422385513782501221e-01,2.991482257843017578e+00,2.000000000000000000e+00
-8.118605017662048340e-01,2.571504414081573486e-01,2.992150783538818359e+00,2.000000000000000000e+00
-9.107757806777954102e-01,2.720239460468292236e-01,2.991743087768554688e+00,2.000000000000000000e+00
-1.009673357009887695e+00,2.870165109634399414e-01,2.989309072494506836e+00,2.000000000000000000e+00
-1.108516097068786621e+00,3.023715019226074219e-01,2.984216213226318359e+00,2.000000000000000000e+00
-1.207257747650146484e+00,3.183709084987640381e-01,2.976152896881103516e+00,2.000000000000000000e+00
-1.305843234062194824e+00,3.353183865547180176e-01,2.964927673339843750e+00,2.000000000000000000e+00
-1.404206395149230957e+00,3.535313904285430908e-01,2.950407981872558594e+00,2.000000000000000000e+00
-1.502267479896545410e+00,3.733360767364501953e-01,2.932476282119750977e+00,2.000000000000000000e+00
-1.599927425384521484e+00,3.950670957565307617e-01,2.910991907119750977e+00,2.000000000000000000e+00
-1.697060823440551758e+00,4.190690815448760986e-01,2.885782718658447266e+00,2.000000000000000000e+00
-1.793510556221008301e+00,4.456968307495117188e-01,2.856673240661621094e+00,2.000000000000000000e+00
-1.889085650444030762e+00,4.753108620643615723e-01,2.823527812957763672e+00,2.000000000000000000e+00
-1.983561038970947266e+00,5.082696080207824707e-01,2.786275148391723633e+00,2.000000000000000000e+00
-2.076678037643432617e+00,5.449200868606567383e-01,2.744936704635620117e+00,2.000000000000000000e+00
-2.168141841888427734e+00,5.855826139450073242e-01,2.699654340744018555e+00,2.000000000000000000e+00
-2.257617950439453125e+00,6.305319070816040039e-01,2.650696754455566406e+00,2.000000000000000000e+00
-2.344733953475952148e+00,6.799779534339904785e-01,2.598480701446533203e+00,2.000000000000000000e+00
-2.429093599319458008e+00,7.340462207794189453e-01,2.543607950210571289e+00,2.000000000000000000e+00
-2.510298490524291992e+00,7.927576899528503418e-01,2.486871719360351562e+00,2.000000000000000000e+00
-2.587969541549682617e+00,8.560120463371276855e-01,2.429166793823242188e+00,2.000000000000000000e+00
-2.661783933639526367e+00,9.236040115356445312e-01,2.371357679367065430e+00,2.000000000000000000e+00
-2.731536388397216797e+00,9.952898025512695312e-01,2.314292669296264648e+00,2.000000000000000000e+00
-2.797134160995483398e+00,1.070800304412841797e+00,2.258754968643188477e+00,2.000000000000000000e+00
-2.858510971069335938e+00,1.149777054786682129e+00,2.205346107482910156e+00,2.000000000000000000e+00
-2.915684461593627930e+00,1.231850981712341309e+00,2.157786369323730469e+00,2.000000000000000000e+00
-2.965482711791992188e+00,1.344721436500549316e+00,1.680585980415344238e+00,1.796318769454956055e+00
-2.973216533660888672e+00,1.443902373313903809e+00,1.616498470306396484e+00,1.780462384223937988e+00
-2.974534273147583008e+00,1.543375015258789062e+00,1.551390528678894043e+00,1.764174461364746094e+00
-2.969314813613891602e+00,1.642718791961669922e+00,1.484978318214416504e+00,1.747922420501708984e+00
-2.957437515258789062e+00,1.741487145423889160e+00,1.416961073875427246e+00,1.732053756713867188e+00
-2.938783645629882812e+00,1.839201211929321289e+00,1.347017288208007812e+00,1.716922640800476074e+00
-2.913240432739257812e+00,1.935343384742736816e+00,1.274801254272460938e+00,1.702943444252014160e+00
-2.880705833435058594e+00,2.029348373413085938e+00,1.199936509132385254e+00,1.690613627433776855e+00
-2.841096162796020508e+00,2.120595932006835938e+00,1.122017264366149902e+00,1.680515408515930176e+00
-2.794353961944580078e+00,2.208401441574096680e+00,1.040580272674560547e+00,1.673411726951599121e+00
-2.740462541580200195e+00,2.292006254196166992e+00,9.551848769187927246e-01,1.670025348663330078e+00
-2.679484844207763672e+00,2.370588779449462891e+00,8.660013675689697266e-01,1.670025348663330078e+00
-2.611719846725463867e+00,2.443400382995605469e+00,7.772997021675109863e-01,1.670025348663330078e+00
-2.537934541702270508e+00,2.510108947753906250e+00,6.938647627830505371e-01,1.674356818199157715e+00
-2.459022045135498047e+00,2.570672273635864258e+00,6.162366867065429688e-01,1.684267640113830566e+00
-2.375793218612670898e+00,2.625158071517944336e+00,5.438885688781738281e-01,1.698585748672485352e+00
-2.288961887359619141e+00,2.673702955245971680e+00,4.764650166034698486e-01,1.716577529907226562e+00
-2.199153900146484375e+00,2.716497182846069336e+00,4.136286377906799316e-01,1.737691640853881836e+00
-2.106914520263671875e+00,2.753767728805541992e+00,3.550677001476287842e-01,1.761420488357543945e+00
-2.012714624404907227e+00,2.785768032073974609e+00,3.005399107933044434e-01,1.787410974502563477e+00
-1.916961431503295898e+00,2.812772512435913086e+00,2.498511672019958496e-01,1.815407752990722656e+00
-1.820002555847167969e+00,2.835071086883544922e+00,2.028495222330093384e-01,1.845236301422119141e+00
-1.722133636474609375e+00,2.852965116500854492e+00,1.594177633523941040e-01,1.876786947250366211e+00
-1.623602867126464844e+00,2.866765499114990234e+00,1.194681525230407715e-01,1.910001993179321289e+00
-1.524615406990051270e+00,2.876789331436157227e+00,8.293846994638442993e-02,1.944868087768554688e+00
-1.425337910652160645e+00,2.883359432220458984e+00,4.978810623288154602e-02,1.981409430503845215e+00
-1.325901985168457031e+00,2.886802434921264648e+00,1.999466679990291595e-02,2.000000000000000000e+00
-1.226407766342163086e+00,2.887448549270629883e+00,-6.449051201343536377e-03,2.000000000000000000e+00
-1.126927495002746582e+00,2.885630369186401367e+00,-2.953802421689033508e-02,2.000000000000000000e+00
-1.027508378028869629e+00,2.881683588027954102e+00,-4.925780743360519409e-02,2.000000000000000000e+00
-9.281760454177856445e-01,2.875945091247558594e+00,-6.558723002672195435e-02,2.000000000000000000e+00
-8.289378881454467773e-01,2.868754625320434570e+00,-7.850106805562973022e-02,2.000000000000000000e+00
-7.297862768173217773e-01,2.860453605651855469e+00,-8.797253668308258057e-02,2.000000000000000000e+00
-6.307017207145690918e-01,2.851385593414306641e+00,-9.397577494382858276e-02,2.000000000000000000e+00
-5.316566228866577148e-01,2.841895580291748047e+00,-9.648779034614562988e-02,2.000000000000000000e+00
-4.326187968254089355e-01,2.832330465316772461e+00,-9.549098461866378784e-02,2.000000000000000000e+00
-3.335551023483276367e-01,2.823038339614868164e+00,-9.097339957952499390e-02,2.000000000000000000e+00
-2.344352453947067261e-01,2.814368486404418945e+00,-8.293133229017257690e-02,2.000000000000000000e+00
-1.352356225252151489e-01,2.806669473648071289e+00,-7.140507549047470093e-02,2.000000000000000000e+00
-3.594313561916351318e-02,2.800282955169677734e+00,-5.650838837027549744e-02,2.000000000000000000e+00
6.343878060579299927e-02,2.795480728149414062e+00,-4.010539129376411438e-02,2.000000000000000000e+00
1.628851890563964844e-01,2.792269468307495117e+00,-2.476391196250915527e-02,2.000000000000000000e+00
2.623678147792816162e-01,2.790493488311767578e+00,-1.123703643679618835e-02,2.000000000000000000e+00
3.618651032447814941e-01,2.789974212646484375e+00,5.062941345386207104e-04,2.000000000000000000e+00
4.613623321056365967e-01,2.790535211563110352e+00,1.047400012612342834e-02,2.000000000000000000e+00
5.608505010604858398e-01,2.791999816894531250e+00,1.867049559950828552e-02,2.000000000000000000e+00
6.603254079818725586e-01,2.794191837310791016e+00,2.509791404008865356e-02,2.000000000000000000e+00
7.597866654396057129e-01,2.796935081481933594e+00,2.975522913038730621e-02,2.000000000000000000e+00
8.592369556427001953e-01,2.800053358078002930e+00,3.263922035694122314e-02,2.000000000000000000e+00
9.586807489395141602e-01,2.803369998931884766e+00,3.374435007572174072e-02,2.000000000000000000e+00
1.058123826980590820e+00,2.806707859039306641e+00,3.306328877806663513e-02,2.000000000000000000e+00
1.157572031021118164e+00,2.809888839721679688e+00,3.058718144893646240e-02,2.000000000000000000e+00
1.257030367851257324e+00,2.812733888626098633e+00,2.630570717155933380e-02,2.000000000000000000e+00
1.356501936912536621e+00,2.815062761306762695e+00,2.020744234323501587e-02,2.000000000000000000e+00
1.455987215042114258e+00,2.816694021224975586e+00,1.228008978068828583e-02,2.000000000000000000e+00
1.555482864379882812e+00,2.817445278167724609e+00,2.510544843971729279e-03,2.000000000000000000e+00
1.654980659484863281e+00,2.817132234573364258e+00,-9.114919230341911316e-03,2.000000000000000000e+00
1.754466533660888672e+00,2.815569400787353516e+00,-2.261059172451496124e-02,2.000000000000000000e+00
1.853919148445129395e+00,2.812570810317993164e+00,-3.799131140112876892e-02,2.000000000000000000e+00
1.953309297561645508e+00,2.807948589324951172e+00,-5.527247861027717590e-02,2.000000000000000000e+00
2.052598237991333008e+00,2.801514387130737305e+00,-7.447017729282379150e-02,2.000000000000000000e+00
2.151737213134765625e+00,2.793079853057861328e+00,-9.560135751962661743e-02,2.000000000000000000e+00
2.250664949417114258e+00,2.782456159591674805e+00,-1.186840534210205078e-01,2.000000000000000000e+00
2.349308013916015625e+00,2.769454717636108398e+00,-1.437377631664276123e-01,2.000000000000000000e+00
2.447578668594360352e+00,2.753888845443725586e+00,-1.707837432622909546e-01,2.000000000000000000e+00
2.545373678207397461e+00,2.735572814941406250e+00,-1.998456269502639771e-01,2.000000000000000000e+00
2.642572879791259766e+00,2.714323759078979492e+00,-2.309499830007553101e-01,2.000000000000000000e+00
2.739038705825805664e+00,2.689962625503540039e+00,-2.641269564628601074e-01,2.000000000000000000e+00
2.834614038467407227e+00,2.662314891815185547e+00,-2.994110584259033203e-01,2.000000000000000000e+00
2.929120540618896484e+00,2.631211757659912109e+00,-3.368420004844665527e-01,2.000000000000000000e+00
3.022358417510986328e+00,2.596492052078247070e+00,-3.764656484127044678e-01,1.991998791694641113e+00
3.114104032516479492e+00,2.558003902435302734e+00,-4.183350205421447754e-01,1.966001510620117188e+00
3.322423696517944336e+00,2.415688514709472656e+00,-5.234789848327636719e-01,8.486714363098144531e-01
3.450382471084594727e+00,2.340469837188720703e+00,-5.667035579681396484e-01,1.737134158611297607e-01
3.447359085083007812e+00,2.336188554763793945e+00,-2.042254686355590820e+00,1.737134158611297607e-01
3.440308094024658203e+00,2.320708751678466797e+00,2.567136049270629883e+00,1.737134158611297607e-01
3.146976947784423828e+00,2.530618190765380859e+00,2.431556940078735352e+00,7.266333103179931641e-01
3.053400516510009766e+00,2.653290987014770508e+00,2.908096790313720703e+00,5.070022344589233398e-01
3.029673814773559570e+00,2.558516979217529297e+00,-1.148610949516296387e+00,5.070022344589233398e-01
3.108333349227905273e+00,2.530999422073364258e+00,-3.819504082202911377e-01,5.070022344589233398e-01
3.292098045349121094e+00,2.469171524047851562e+00,-5.090671181678771973e-01,1.917242169380187988e+00
3.377768039703369141e+00,2.418587684631347656e+00,-5.580836534500122070e-01,1.894641995429992676e+00
3.460786342620849609e+00,2.363762378692626953e+00,-6.096568703651428223e-01,1.873380899429321289e+00
3.540788888931274414e+00,2.304624795913696289e+00,-6.638979315757751465e-01,1.853616476058959961e+00
3.617378473281860352e+00,2.241131782531738281e+00,-7.209345102310180664e-01,1.835545897483825684e+00
3.690124273300170898e+00,2.173270702362060547e+00,-7.809125781059265137e-01,1.819416761398315430e+00
3.758559465408325195e+00,2.101066827774047852e+00,-8.440009355545043945e-01,1.805539846420288086e+00
3.822180271148681641e+00,2.024589300155639648e+00,-9.103876352310180664e-01,1.794285893440246582e+00
3.880444288253784180e+00,1.943958520889282227e+00,-9.803717732429504395e-01,1.786318898200988770e+00
3.932760000228881836e+00,1.859349966049194336e+00,-1.054343700408935547e+00,1.782377839088439941e+00
3.978563547134399414e+00,1.771047115325927734e+00,-1.130164504051208496e+00,1.778511881828308105e+00
4.017581462860107422e+00,1.679542660713195801e+00,-1.205093860626220703e+00,1.773871421813964844e+00
4.049694061279296875e+00,1.585391998291015625e+00,-1.278944253921508789e+00,1.767402768135070801e+00
4.074807643890380859e+00,1.489137291908264160e+00,-1.352134466171264648e+00,1.759420752525329590e+00
4.092832088470458984e+00,1.391306757926940918e+00,-1.425051689147949219e+00,1.750192403793334961e+00
4.103678703308105469e+00,1.292422890663146973e+00,-1.498078227043151855e+00,1.740005016326904297e+00
4.107260704040527344e+00,1.193010807037353516e+00,-1.571596384048461914e+00,1.729152083396911621e+00
4.103490352630615234e+00,1.093606114387512207e+00,-1.645997762680053711e+00,1.718096256256103516e+00
4.092281341552734375e+00,9.947643280029296875e-01,-1.721691012382507324e+00,1.707547545433044434e+00
4.073549270629882812e+00,8.970697522163391113e-01,-1.799111008644104004e+00,1.698025226593017578e+00
4.047216415405273438e+00,8.011457920074462891e-01,-1.878734469413757324e+00,1.690169215202331543e+00
4.013213634490966797e+00,7.076668143272399902e-01,-1.961094379425048828e+00,1.684755921363830566e+00
3.971491813659667969e+00,6.173712015151977539e-01,-2.046781063079833984e+00,1.682735443115234375e+00
3.922062397003173828e+00,5.310558080673217773e-01,-2.135301351547241211e+00,1.682735443115234375e+00
3.865203142166137695e+00,4.494419395923614502e-01,-2.222509145736694336e+00,1.682735443115234375e+00
3.801638603210449219e+00,3.729301691055297852e-01,-2.304619312286376953e+00,1.687354803085327148e+00
3.732202529907226562e+00,3.016992807388305664e-01,-2.381395578384399414e+00,1.696985483169555664e+00
3.657669782638549805e+00,2.358154803514480591e-01,-2.453235626220703125e+00,1.710761666297912598e+00
3.578738451004028320e+00,1.752664744853973389e-01,-2.520484924316406250e+00,1.727977752685546875e+00
3.496034860610961914e+00,1.199771240353584290e-01,-2.583428144454956055e+00,1.748104929924011230e+00
3.410118341445922852e+00,6.982208788394927979e-02,-2.642305135726928711e+00,1.770735383033752441e+00
3.321485519409179688e+00,2.463587000966072083e-02,-2.697314023971557617e+00,1.795563578605651855e+00
3.230576038360595703e+00,-1.577900908887386322e-02,-2.748620748519897461e+00,1.822361946105957031e+00
3.137776374816894531e+00,-5.164543166756629944e-02,-2.796362876892089844e+00,1.850966691970825195e+00
3.043424367904663086e+00,-8.320631086826324463e-02,-2.840653657913208008e+00,1.881265282630920410e+00
2.947812318801879883e+00,-1.107202172279357910e-01,-2.881587028503417969e+00,1.913187026977539062e+00
2.851192474365234375e+00,-1.344578117132186890e-01,-2.919239282608032227e+00,1.946695566177368164e+00
2.753778934478759766e+00,-1.546989232301712036e-01,-2.953672885894775391e+00,1.981783509254455566e+00
