# x,y,theta,velocity
2.851192474365234375e+00,-1.344578117132186890e-01,-2.919239282608032227e+00,1.946695566177368164e+00
2.753778934478759766e+00,-1.546989232301712036e-01,-2.953672885894775391e+00,1.981783509254455566e+00
2.655752658843994141e+00,-1.717302501201629639e-01,-2.984937906265258789e+00,2.000000000000000000e+00
2.557262897491455078e+00,-1.858433932065963745e-01,-3.013075113296508789e+00,2.000000000000000000e+00
2.458432197570800781e+00,-1.973334401845932007e-01,-3.038115739822387695e+00,2.000000000000000000e+00
2.365319967269897461e+00,-1.903546005487442017e-01,3.038835525512695312e+00,2.000000000000000000e+00
2.264983177185058594e+00,-1.805158406496047974e-01,3.048956155776977539e+00,2.000000000000000000e+00
2.164550781250000000e+00,-1.717026680707931519e-01,3.058411121368408203e+00,2.000000000000000000e+00
2.064045667648315430e+00,-1.637628823518753052e-01,3.066441059112548828e+00,2.000000000000000000e+00
1.963484764099121094e+00,-1.565637439489364624e-01,3.073224306106567383e+00,2.000000000000000000e+00
1.862881064414978027e+00,-1.499881148338317871e-01,3.078903675079345703e+00,2.000000000000000000e+00
1.762244701385498047e+00,-1.439316570758819580e-01,3.083595991134643555e+00,2.000000000000000000e+00
1.661583423614501953e+00,-1.383004188537597656e-01,3.087395191192626953e+00,2.000000000000000000e+00
1.560903429985046387e+00,-1.330087780952453613e-01,3.090378522872924805e+00,2.000000000000000000e+00
1.460210084915161133e+00,-1.279782056808471680e-01,3.092609882354736328e+00,2.000000000000000000e+00
1.359507799148559570e+00,-1.231359541416168213e-01,3.094141483306884766e+00,2.000000000000000000e+00
1.258799910545349121e+00,-1.184138730168342590e-01,3.095014572143554688e+00,2.000000000000000000e+00
1.158089637756347656e+00,-1.137474998831748962e-01,3.095262289047241211e+00,2.000000000000000000e+00
1.057379841804504395e+00,-1.090753152966499329e-01,3.094910860061645508e+00,2.000000000000000000e+00
9.566730260848999023e-01,-1.043381690979003906e-01,3.093980550765991211e+00,2.000000000000000000e+00
8.559718728065490723e-01,-9.947859495878219604e-02,3.092485427856445312e+00,2.000000000000000000e+00
7.552793025970458984e-01,-9.444032609462738037e-02,3.090434789657592773e+00,2.000000000000000000e+00
6.545984148979187012e-01,-8.916776627302169800e-02,3.087833166122436523e+00,2.000000000000000000e+00
5.539329051971435547e-01,-8.360558748245239258e-02,3.084680318832397461e+00,2.000000000000000000e+00
4.532868266105651855e-01,-7.769825309514999390e-02,3.080971956253051758e+00,2.000000000000000000e+00
3.526647686958312988e-01,-7.138958573341369629e-02,3.076699018478393555e+00,2.000000000000000000e+00
2.520721852779388428e-01,-6.462235748767852783e-02,3.071848869323730469e+00,2.000000000000000000e+00
1.515153497457504272e-01,-5.733787640929222107e-02,3.066403865814208984e+00,2.000000000000000000e+00
5.100161582231521606e-02,-4.947554692625999451e-02,3.060342073440551758e+00,2.000000000000000000e+00
-4.946047812700271606e-02,-4.097245261073112488e-02,3.053637027740478516e+00,2.000000000000000000e+00
-1.498609185218811035e-01,-3.176284208893775940e-02,3.046256065368652344e+00,2.000000000000000000e+00
-2.501879036426544189e-01,-2.177760377526283264e-02,3.038161516189575195e+00,2.000000000000000000e+00
-3.504275977611541748e-01,-1.094372570514678955e-02,3.029309511184692383e+00,2.000000000000000000e+00
-4.505637884140014648e-01,8.162696030922234058e-04,3.019648790359497070e+00,2.000000000000000000e+00
-5.505774021148681641e-01,1.358500309288501740e-02,3.009120941162109375e+00,2.000000000000000000e+00
-6.504459381103515625e-01,2.745098993182182312e-02,2.997658014297485352e+00,2.000000000000000000e+00
-7.501428723335266113e-01,4.250939190387725830e-02,2.985183954238891602e+00,2.000000000000000000e+00
-8.496372103691101074e-01,5.886283144354820251e-02,2.971610546112060547e+00,2.000000000000000000e+00
-9.488921761512756348e-01,7.662241905927658081e-02,2.956836462020874023e+00,2.000000000000000000e+00
-1.047863960266113281e+00,9.590893238782882690e-02,2.940745592117309570e+00,2.000000000000000000e+00
-1.146500945091247559e+00,1.168539971113204956e-01,2.923204898834228516e+00,2.000000000000000000e+00
-1.244741201400756836e+00,1.396013051271438599e-01,2.904064416885375977e+00,2.000000000000000000e+00
-1.342510938644409180e+00,1.643077582120895386e-01,2.883152246475219727e+00,2.000000000000000000e+00
-1.439721465110778809e+00,1.911447942256927490e-01,2.860273838043212891e+00,2.000000000000000000e+00
-1.536265611648559570e+00,2.202994823455810547e-01,2.835209846496582031e+00,2.000000000000000000e+00
-1.632015228271484375e+00,2.519757449626922607e-01,2.807711601257324219e+00,2.000000000000000000e+00
-1.726816654205322266e+00,2.863953709602355957e-01,2.777498960494995117e+00,2.000000000000000000e+00
-1.820485591888427734e+00,3.237987160682678223e-01,2.744257926940917969e+00,2.000000000000000000e+00
-1.912802457809448242e+00,3.644452095031738281e-01,2.707651853561401367e+00,2.000000000000000000e+00
-2.003504276275634766e+00,4.086094796657562256e-01,2.667335987091064453e+00,2.000000000000000000e+00
-2.092274904251098633e+00,4.565742611885070801e-01,2.622956037521362305e+00,2.000000000000000000e+00
-2.178734302520751953e+00,5.086225867271423340e-01,2.574167728424072266e+00,2.000000000000000000e+00
-2.262435197830200195e+00,5.650245547294616699e-01,2.520700216293334961e+00,2.000000000000000000e+00
-2.342864751815795898e+00,6.260180473327636719e-01,2.462397098541259766e+00,2.000000000000000000e+00
-2.419449806213378906e+00,6.917873620986938477e-01,2.399247646331787109e+00,2.000000000000000000e+00
-2.491569519042968750e+00,7.624396085739135742e-01,2.331486463546752930e+00,2.000000000000000000e+00
-2.558587312698364258e+00,8.379762172698974609e-01,2.259688377380371094e+00,2.000000000000000000e+00
-2.619886398315429688e+00,9.182630777359008789e-01,2.184747219085693359e+00,2.000000000000000000e+00
-2.674909830093383789e+00,1.003015637397766113e+00,2.107795953750610352e+00,2.000000000000000000e+00
-2.723207950592041016e+00,1.091808438301086426e+00,2.030183076858520508e+00,2.000000000000000000e+00
-2.764485836029052734e+00,1.184092640876770020e+00,1.953414082527160645e+00,2.000000000000000000e+00
-2.798634290695190430e+00,1.279225468635559082e+00,1.878883600234985352e+00,2.000000000000000000e+00
-2.825724363327026367e+00,1.376533269882202148e+00,1.807665348052978516e+00,2.000000000000000000e+00
-2.845987319946289062e+00,1.475385546684265137e+00,1.740549564361572266e+00,2.000000000000000000e+00
-2.859786987304687500e+00,1.575261473655700684e+00,1.678032755851745605e+00,2.000000000000000000e+00
-2.867558956146240234e+00,1.675772666931152344e+00,1.620284080505371094e+00,2.000000000000000000e+00
-2.869757175445556641e+00,1.776565909385681152e+00,1.567232728004455566e+00,2.000000000000000000e+00
-2.866840600967407227e+00,1.877340435981750488e+00,1.518683791160583496e+00,2.000000000000000000e+00
-2.859256982803344727e+00,1.977872848510742188e+00,1.474122166633605957e+00,2.000000000000000000e+00
-2.841096162796020508e+00,2.120595932006835938e+00,1.122017264366149902e+00,1.680515408515930176e+00
-2.794353961944580078e+00,2.208401441574096680e+00,1.040580272674560547e+00,1.673411726951599121e+00
-2.740462541580200195e+00,2.292006254196166992e+00,9.551848769187927246e-01,1.670025348663330078e+00
-2.679484844207763672e+00,2.370588779449462891e+00,8.660013675689697266e-01,1.670025348663330078e+00
-2.611719846725463867e+00,2.443400382995605469e+00,7.772997021675109863e-01,1.670025348663330078e+00
-2.537934541702270508e+00,2.510108947753906250e+00,6.938647627830505371e-01,1.674356818199157715e+00
-2.459022045135498047e+00,2.570672273635864258e+00,6.162366867065429688e-01,1.684267640113830566e+00
-2.375793218612670898e+00,2.625158071517944336e+00,5.438885688781738281e-01,1.698585748672485352e+00
-2.288961887359619141e+00,2.673702955245971680e+00,4.764650166034698486e-01,1.716577529907226562e+00
-2.199153900146484375e+00,2.716497182846069336e+00,4.136286377906799316e-01,1.737691640853881836e+00
-2.106914520263671875e+00,2.753767728805541992e+00,3.550677001476287842e-01,1.761420488357543945e+00
-2.012714624404907227e+00,2.785768032073974609e+00,3.005399107933044434e-01,1.787410974502563477e+00
-1.916961431503295898e+00,2.812772512435913086e+00,2.498511672019958496e-01,1.815407752990722656e+00
-1.820002555847167969e+00,2.835071086883544922e+00,2.028495222330093384e-01,1.845236301422119141e+00
-1.722133636474609375e+00,2.852965116500854492e+00,1.594177633523941040e-01,1.876786947250366211e+00
-1.623602867126464844e+00,2.866765499114990234e+00,1.194681525230407715e-01,1.910001993179321289e+00
-1.524615406990051270e+00,2.876789331436157227e+00,8.293846994638442993e-02,1.944868087768554688e+00
-1.425337910652160645e+00,2.883359432220458984e+00,4.978810623288154602e-02,1.981409430503845215e+00
-1.325901985168457031e+00,2.886802434921264648e+00,1.999466679990291595e-02,2.000000000000000000e+00
-1.226407766342163086e+00,2.887448549270629883e+00,-6.449051201343536377e-03,2.000000000000000000e+00
-1.126927495002746582e+00,2.885630369186401367e+00,-2.953802421689033508e-02,2.000000000000000000e+00
-1.027508378028869629e+00,2.881683588027954102e+00,-4.925780743360519409e-02,2.000000000000000000e+00
-9.281760454177856445e-01,2.875945091247558594e+00,-6.558723002672195435e-02,2.000000000000000000e+00
-8.289378881454467773e-01,2.868754625320434570e+00,-7.850106805562973022e-02,2.000000000000000000e+00
-7.297862768173217773e-01,2.860453605651855469e+00,-8.797253668308258057e-02,2.000000000000000000e+00
-6.307017207145690918e-01,2.851385593414306641e+00,-9.397577494382858276e-02,2.000000000000000000e+00
-5.316566228866577148e-01,2.841895580291748047e+00,-9.648779034614562988e-02,2.000000000000000000e+00
-4.326187968254089355e-01,2.832330465316772461e+00,-9.549098461866378784e-02,2.000000000000000000e+00
-3.335551023483276367e-01,2.823038339614868164e+00,-9.097339957952499390e-02,2.000000000000000000e+00
-2.344352453947067261e-01,2.814368486404418945e+00,-8.293133229017257690e-02,2.000000000000000000e+00
-1.352356225252151489e-01,2.806669473648071289e+00,-7.140507549047470093e-02,2.000000000000000000e+00
-3.594313561916351318e-02,2.800282955169677734e+00,-5.650838837027549744e-02,2.000000000000000000e+00
6.343878060579299927e-02,2.795480728149414062e+00,-4.010539129376411438e-02,2.000000000000000000e+00
1.628851890563964844e-01,2.792269468307495117e+00,-2.476391196250915527e-02,2.000000000000000000e+00
2.623678147792816162e-01,2.790493488311767578e+00,-1.123703643679618835e-02,2.000000000000000000e+00
3.618651032447814941e-01,2.789974212646484375e+00,5.062941345386207104e-04,2.000000000000000000e+00
4.613623321056365967e-01,2.790535211563110352e+00,1.047400012612342834e-02,2.000000000000000000e+00
5.608505010604858398e-01,2.791999816894531250e+00,1.867049559950828552e-02,2.000000000000000000e+00
6.603254079818725586e-01,2.794191837310791016e+00,2.509791404008865356e-02,2.000000000000000000e+00
7.597866654396057129e-01,2.796935081481933594e+00,2.975522913038730621e-02,2.000000000000000000e+00
8.592369556427001953e-01,2.800053358078002930e+00,3.263922035694122314e-02,2.000000000000000000e+00
9.586807489395141602e-01,2.803369998931884766e+00,3.374435007572174072e-02,2.000000000000000000e+00
1.058123826980590820e+00,2.806707859039306641e+00,3.306328877806663513e-02,2.000000000000000000e+00
1.157572031021118164e+00,2.809888839721679688e+00,3.058718144893646240e-02,2.000000000000000000e+00
1.257030367851257324e+00,2.812733888626098633e+00,2.630570717155933380e-02,2.000000000000000000e+00
1.356501936912536621e+00,2.815062761306762695e+00,2.020744234323501587e-02,2.000000000000000000e+00
1.455987215042114258e+00,2.816694021224975586e+00,1.228008978068828583e-02,2.000000000000000000e+00
1.555482864379882812e+00,2.817445278167724609e+00,2.510544843971729279e-03,2.000000000000000000e+00
1.654980659484863281e+00,2.817132234573364258e+00,-9.114919230341911316e-03,2.000000000000000000e+00
1.754466533660888672e+00,2.815569400787353516e+00,-2.261059172451496124e-02,2.000000000000000000e+00
1.853919148445129395e+00,2.812570810317993164e+00,-3.799131140112876892e-02,2.000000000000000000e+00
1.953309297561645508e+00,2.807948589324951172e+00,-5.527247861027717590e-02,2.000000000000000000e+00
2.052598237991333008e+00,2.801514387130737305e+00,-7.447017729282379150e-02,2.000000000000000000e+00
2.151737213134765625e+00,2.793079853057861328e+00,-9.560135751962661743e-02,2.000000000000000000e+00
2.250664949417114258e+00,2.782456159591674805e+00,-1.186840534210205078e-01,2.000000000000000000e+00
2.349308013916015625e+00,2.769454717636108398e+00,-1.437377631664276123e-01,2.000000000000000000e+00
2.447578668594360352e+00,2.753888845443725586e+00,-1.707837432622909546e-01,2.000000000000000000e+00
2.545373678207397461e+00,2.735572814941406250e+00,-1.998456269502639771e-01,2.000000000000000000e+00
2.642572879791259766e+00,2.714323759078979492e+00,-2.309499830007553101e-01,2.000000000000000000e+00
2.739038705825805664e+00,2.689962625503540039e+00,-2.641269564628601074e-01,2.000000000000000000e+00
2.834614038467407227e+00,2.662314891815185547e+00,-2.994110584259033203e-01,2.000000000000000000e+00
2.929120540618896484e+00,2.631211757659912109e+00,-3.368420004844665527e-01,2.000000000000000000e+00
3.022358417510986328e+00,2.596492052078247070e+00,-3.764656484127044678e-01,1.991998791694641113e+00
3.114104032516479492e+00,2.558003902435302734e+00,-4.183350205421447754e-01,1.966001510620117188e+00
3.204108953475952148e+00,2.515606164932250977e+00,-4.625117480754852295e-01,1.941059589385986328e+00
3.292098045349121094e+00,2.469171524047851562e+00,-5.090671181678771973e-01,1.917242169380187988e+00
3.377768039703369141e+00,2.418587684631347656e+00,-5.580836534500122070e-01,1.894641995429992676e+00
3.460786342620849609e+00,2.363762378692626953e+00,-6.096568703651428223e-01,1.873380899429321289e+00
3.540788888931274414e+00,2.304624795913696289e+00,-6.638979315757751465e-01,1.853616476058959961e+00
3.617378473281860352e+00,2.241131782531738281e+00,-7.209345102310180664e-01,1.835545897483825684e+00
3.690124273300170898e+00,2.173270702362060547e+00,-7.809125781059265137e-01,1.819416761398315430e+00
3.758559465408325195e+00,2.101066827774047852e+00,-8.440009355545043945e-01,1.805539846420288086e+00
3.822180271148681641e+00,2.024589300155639648e+00,-9.103876352310180664e-01,1.794285893440246582e+00
3.880444288253784180e+00,1.943958520889282227e+00,-9.803717732429504395e-01,1.786318898200988770e+00
3.932760000228881836e+00,1.859349966049194336e+00,-1.054343700408935547e+00,1.782377839088439941e+00
3.978563547134399414e+00,1.771047115325927734e+00,-1.130164504051208496e+00,1.778511881828308105e+00
4.017581462860107422e+00,1.679542660713195801e+00,-1.205093860626220703e+00,1.773871421813964844e+00
4.049694061279296875e+00,1.585391998291015625e+00,-1.278944253921508789e+00,1.767402768135070801e+00
4.074807643890380859e+00,1.489137291908264160e+00,-1.352134466171264648e+00,1.759420752525329590e+00
4.092832088470458984e+00,1.391306757926940918e+00,-1.425051689147949219e+00,1.750192403793334961e+00
4.103678703308105469e+00,1.292422890663146973e+00,-1.498078227043151855e+00,1.740005016326904297e+00
4.107260704040527344e+00,1.193010807037353516e+00,-1.571596384048461914e+00,1.729152083396911621e+00
4.103490352630615234e+00,1.093606114387512207e+00,-1.645997762680053711e+00,1.718096256256103516e+00
4.092281341552734375e+00,9.947643280029296875e-01,-1.721691012382507324e+00,1.707547545433044434e+00
4.073549270629882812e+00,8.970697522163391113e-01,-1.799111008644104004e+00,1.698025226593017578e+00
4.047216415405273438e+00,8.011457920074462891e-01,-1.878734469413757324e+00,1.690169215202331543e+00
4.013213634490966797e+00,7.076668143272399902e-01,-1.961094379425048828e+00,1.684755921363830566e+00
3.971491813659667969e+00,6.173712015151977539e-01,-2.046781063079833984e+00,1.682735443115234375e+00
3.922062397003173828e+00,5.310558080673217773e-01,-2.135301351547241211e+00,1.682735443115234375e+00
3.865203142166137695e+00,4.494419395923614502e-01,-2.222509145736694336e+00,1.682735443115234375e+00
3.801638603210449219e+00,3.729301691055297852e-01,-2.304619312286376953e+00,1.687354803085327148e+00
3.732202529907226562e+00,3.016992807388305664e-01,-2.381395578384399414e+00,1.696985483169555664e+00
3.657669782638549805e+00,2.358154803514480591e-01,-2.453235626220703125e+00,1.710761666297912598e+00
3.578738451004028320e+00,1.752664744853973389e-01,-2.520484924316406250e+00,1.727977752685546875e+00
3.496034860610961914e+00,1.199771240353584290e-01,-2.583428144454956055e+00,1.748104929924011230e+00
3.410118341445922852e+00,6.982208788394927979e-02,-2.642305135726928711e+00,1.770735383033752441e+00
3.321485519409179688e+00,2.463587000966072083e-02,-2.697314023971557617e+00,1.795563578605651855e+00
3.230576038360595703e+00,-1.577900908887386322e-02,-2.748620748519897461e+00,1.822361946105957031e+00
3.137776374816894531e+00,-5.164543166756629944e-02,-2.796362876892089844e+00,1.850966691970825195e+00
3.043424367904663086e+00,-8.320631086826324463e-02,-2.840653657913208008e+00,1.881265282630920410e+00
2.947812318801879883e+00,-1.107202172279357910e-01,-2.881587028503417969e+00,1.913187026977539062e+00
