# x,y,theta,velocity
3.496034860610961914e+00,1.199771240353584290e-01,-2.583428144454956055e+00,1.748104929924011230e+00
3.410118341445922852e+00,6.982208788394927979e-02,-2.642305135726928711e+00,1.770735383033752441e+00
3.321485519409179688e+00,2.463587000966072083e-02,-2.697314023971557617e+00,1.795563578605651855e+00
3.230576038360595703e+00,-1.577900908887386322e-02,-2.748620748519897461e+00,1.822361946105957031e+00
3.137776374816894531e+00,-5.164543166756629944e-02,-2.796362876892089844e+00,1.850966691970825195e+00
3.032767295837402344e+00,-1.193471848964691162e-01,-2.988624572753906250e+00,1.988713860511779785e+00
2.932781219482421875e+00,-1.303612440824508667e-01,-3.071041584014892578e+00,2.000000000000000000e+00
2.832240104675292969e+00,-1.335180997848510742e-01,3.139250040054321289e+00,2.000000000000000000e+00
2.731714487075805664e+00,-1.298902034759521484e-01,3.077615022659301758e+00,2.000000000000000000e+00
2.631547212600708008e+00,-1.206606999039649963e-01,3.027766466140747070e+00,2.000000000000000000e+00
2.531881332397460938e+00,-1.070452257990837097e-01,2.989787817001342773e+00,2.000000000000000000e+00
2.432700634002685547e+00,-9.024079889059066772e-02,2.962397336959838867e+00,2.000000000000000000e+00
2.333916902542114258e+00,-7.118629664182662964e-02,2.942385911941528320e+00,2.000000000000000000e+00
2.235471725463867188e+00,-5.042335763573646545e-02,2.926098585128784180e+00,2.000000000000000000e+00
2.137358903884887695e+00,-2.816111594438552856e-02,2.910947084426879883e+00,2.000000000000000000e+00
2.039598703384399414e+00,-4.427582491189241409e-03,2.895892143249511719e+00,2.000000000000000000e+00
1.942209124565124512e+00,2.077605389058589935e-02,2.881209373474121094e+00,2.000000000000000000e+00
1.845186829566955566e+00,4.736996814608573914e-02,2.867683887481689453e+00,2.000000000000000000e+00
1.748508691787719727e+00,7.520025223493576050e-02,2.855858087539672852e+00,2.000000000000000000e+00
1.652140021324157715e+00,1.040819510817527771e-01,2.845843791961669922e+00,2.000000000000000000e+00
1.556043744087219238e+00,1.338413208723068237e-01,2.837440252304077148e+00,2.000000000000000000e+00
1.460183501243591309e+00,1.643355786800384521e-01,2.830415010452270508e+00,2.000000000000000000e+00
1.364522576332092285e+00,1.954396218061447144e-01,2.824705839157104492e+00,2.000000000000000000e+00
1.269019603729248047e+00,2.270254790782928467e-01,2.820438385009765625e+00,2.000000000000000000e+00
1.173626065254211426e+00,2.589453160762786865e-01,2.817825555801391602e+00,2.000000000000000000e+00
1.078287243843078613e+00,2.910305559635162354e-01,2.817028522491455078e+00,2.000000000000000000e+00
9.829441905021667480e-01,3.231026530265808105e-01,2.818095922470092773e+00,2.000000000000000000e+00
8.875379562377929688e-01,3.549839854240417480e-01,2.821017980575561523e+00,2.000000000000000000e+00
7.920094132423400879e-01,3.864982128143310547e-01,2.825837135314941406e+00,2.000000000000000000e+00
6.962982416152954102e-01,4.174591898918151855e-01,2.832654237747192383e+00,2.000000000000000000e+00
6.003446578979492188e-01,4.476694166660308838e-01,2.841567039489746094e+00,2.000000000000000000e+00
5.040919184684753418e-01,4.769209623336791992e-01,2.852658748626708984e+00,2.000000000000000000e+00
4.074882864952087402e-01,5.049963593482971191e-01,2.865998029708862305e+00,2.000000000000000000e+00
3.104881048202514648e-01,5.316703319549560547e-01,2.881638050079345703e+00,2.000000000000000000e+00
2.130528837442398071e-01,5.567108988761901855e-01,2.899618387222290039e+00,2.000000000000000000e+00
1.151521950960159302e-01,5.798811912536621094e-01,2.919968605041503906e+00,2.000000000000000000e+00
1.676725223660469055e-02,6.009390354156494141e-01,2.942718982696533203e+00,2.000000000000000000e+00
-8.210381865501403809e-02,6.196357607841491699e-01,2.967904806137084961e+00,2.000000000000000000e+00
-1.814409345388412476e-01,6.357157826423645020e-01,2.995538473129272461e+00,2.000000000000000000e+00
-2.812008261680603027e-01,6.489232182502746582e-01,3.025544166564941406e+00,2.000000000000000000e+00
-3.813200891017913818e-01,6.590161323547363281e-01,3.057713270187377930e+00,2.000000000000000000e+00
-4.817187488079071045e-01,6.657820940017700195e-01,3.091739416122436523e+00,2.000000000000000000e+00
-5.823013782501220703e-01,6.690440177917480469e-01,3.127360820770263672e+00,2.000000000000000000e+00
-6.829522848129272461e-01,6.686462163925170898e-01,-3.118691205978393555e+00,2.000000000000000000e+00
-7.835293412208557129e-01,6.644347906112670898e-01,-3.080049276351928711e+00,2.000000000000000000e+00
-8.838661909103393555e-01,6.562656760215759277e-01,-3.040305614471435547e+00,2.000000000000000000e+00
-9.837943315505981445e-01,6.440808773040771484e-01,-3.000773668289184570e+00,2.000000000000000000e+00
-1.083174347877502441e+00,6.280122399330139160e-01,-2.963758945465087891e+00,2.000000000000000000e+00
-1.181924819946289062e+00,6.084704399108886719e-01,-2.931945800781250000e+00,2.000000000000000000e+00
-1.280041575431823730e+00,5.861241817474365234e-01,-2.907299280166625977e+00,2.000000000000000000e+00
-1.377605438232421875e+00,5.617660284042358398e-01,-2.890464067459106445e+00,2.000000000000000000e+00
-1.474788308143615723e+00,5.361629724502563477e-01,-2.880963563919067383e+00,2.000000000000000000e+00
-1.571838974952697754e+00,5.099648833274841309e-01,-2.878064632415771484e+00,2.000000000000000000e+00
-1.669019222259521484e+00,4.837589263916015625e-01,-2.881626605987548828e+00,2.000000000000000000e+00
-1.766520619392395020e+00,4.581824541091918945e-01,-2.892362356185913086e+00,1.956845402717590332e+00
-1.864394903182983398e+00,4.340315461158752441e-01,-2.911854982376098633e+00,1.851024031639099121e+00
-1.962612748146057129e+00,4.123230278491973877e-01,-2.942467212677001953e+00,1.748976945877075195e+00
-2.061262607574462891e+00,3.943036794662475586e-01,-2.987084627151489258e+00,1.651906013488769531e+00
-2.160741090774536133e+00,3.814646303653717041e-01,-3.049185991287231445e+00,1.561549901962280273e+00
-2.261492252349853516e+00,3.757482767105102539e-01,-3.134747505187988281e+00,1.483261227607727051e+00
-2.362987518310546875e+00,3.800801932811737061e-01,3.027624368667602539e+00,1.428359508514404297e+00
-2.462668657302856445e+00,3.987758159637451172e-01,2.858637332916259766e+00,1.406243681907653809e+00
-2.556195497512817383e+00,4.362567365169525146e-01,2.646831035614013672e+00,1.406243681907653809e+00
-2.639122009277343750e+00,4.939759969711303711e-01,2.424950838088989258e+00,1.406243681907653809e+00
-2.708364963531494141e+00,5.688182711601257324e-01,2.224788665771484375e+00,1.412143230438232422e+00
-2.762742519378662109e+00,6.552500724792480469e-01,2.056308269500732422e+00,1.439432621002197266e+00
-2.803103685379028320e+00,7.483710050582885742e-01,1.919885993003845215e+00,1.486251831054687500e+00
-2.831848382949829102e+00,8.451028466224670410e-01,1.815673351287841797e+00,1.549750089645385742e+00
-2.851933002471923828e+00,9.437730312347412109e-01,1.740483283996582031e+00,1.628499865531921387e+00
-2.865844488143920898e+00,1.043522357940673828e+00,1.685432076454162598e+00,1.718250989913940430e+00
-2.874970674514770508e+00,1.143854737281799316e+00,1.639962673187255859e+00,1.811496019363403320e+00
-2.879765272140502930e+00,1.244468092918395996e+00,1.596521735191345215e+00,1.900933384895324707e+00
-2.880150794982910156e+00,1.345170378684997559e+00,1.551700949668884277e+00,1.982290387153625488e+00
-2.875920295715332031e+00,1.445798635482788086e+00,1.505523085594177246e+00,2.000000000000000000e+00
-2.867012500762939453e+00,1.546165108680725098e+00,1.459371566772460938e+00,2.000000000000000000e+00
-2.853513956069946289e+00,1.646056532859802246e+00,1.414197564125061035e+00,2.000000000000000000e+00
-2.835578441619873047e+00,1.745251178741455078e+00,1.370115160942077637e+00,2.000000000000000000e+00
-2.813342809677124023e+00,1.843536138534545898e+00,1.326465725898742676e+00,2.000000000000000000e+00
-2.786845922470092773e+00,1.940719962120056152e+00,1.282007336616516113e+00,2.000000000000000000e+00
-2.755982637405395508e+00,2.036606550216674805e+00,1.235143184661865234e+00,2.000000000000000000e+00
-2.720491409301757812e+00,2.130927085876464844e+00,1.183975815773010254e+00,2.000000000000000000e+00
-2.679947614669799805e+00,2.223267316818237305e+00,1.126232028007507324e+00,2.000000000000000000e+00
-2.633759498596191406e+00,2.312996149063110352e+00,1.059517621994018555e+00,2.000000000000000000e+00
-2.581220149993896484e+00,2.399240016937255859e+00,9.823316931724548340e-01,2.000000000000000000e+00
-2.521675825119018555e+00,2.480953216552734375e+00,8.950334191322326660e-01,2.000000000000000000e+00
-2.454732418060302734e+00,2.557018756866455078e+00,7.999854087829589844e-01,2.000000000000000000e+00
-2.380460023880004883e+00,2.626350402832031250e+00,7.009353041648864746e-01,2.000000000000000000e+00
-2.299526453018188477e+00,2.687995433807373047e+00,6.014506816864013672e-01,2.000000000000000000e+00
-2.213045597076416016e+00,2.741241693496704102e+00,5.038523077964782715e-01,2.000000000000000000e+00
-2.122256517410278320e+00,2.785726785659790039e+00,4.098318517208099365e-01,2.000000000000000000e+00
-2.028191089630126953e+00,2.821548223495483398e+00,3.214659690856933594e-01,2.000000000000000000e+00
-1.931490778923034668e+00,2.849255084991455078e+00,2.399137020111083984e-01,2.000000000000000000e+00
-1.832920551300048828e+00,2.869316339492797852e+00,1.645970195531845093e-01,2.000000000000000000e+00
-1.733155369758605957e+00,2.882198572158813477e+00,9.494117647409439087e-02,2.000000000000000000e+00
-1.632752895355224609e+00,2.888377666473388672e+00,2.924831025302410126e-02,2.000000000000000000e+00
-1.524615406990051270e+00,2.876789331436157227e+00,8.293846994638442993e-02,1.944868087768554688e+00
-1.425337910652160645e+00,2.883359432220458984e+00,4.978810623288154602e-02,1.981409430503845215e+00
-1.325901985168457031e+00,2.886802434921264648e+00,1.999466679990291595e-02,2.000000000000000000e+00
-1.226407766342163086e+00,2.887448549270629883e+00,-6.449051201343536377e-03,2.000000000000000000e+00
-1.126927495002746582e+00,2.885630369186401367e+00,-2.953802421689033508e-02,2.000000000000000000e+00
-1.027508378028869629e+00,2.881683588027954102e+00,-4.925780743360519409e-02,2.000000000000000000e+00
-9.281760454177856445e-01,2.875945091247558594e+00,-6.558723002672195435e-02,2.000000000000000000e+00
-8.289378881454467773e-01,2.868754625320434570e+00,-7.850106805562973022e-02,2.000000000000000000e+00
-7.297862768173217773e-01,2.860453605651855469e+00,-8.797253668308258057e-02,2.000000000000000000e+00
-6.307017207145690918e-01,2.851385593414306641e+00,-9.397577494382858276e-02,2.000000000000000000e+00
-5.316566228866577148e-01,2.841895580291748047e+00,-9.648779034614562988e-02,2.000000000000000000e+00
-4.326187968254089355e-01,2.832330465316772461e+00,-9.549098461866378784e-02,2.000000000000000000e+00
-3.335551023483276367e-01,2.823038339614868164e+00,-9.097339957952499390e-02,2.000000000000000000e+00
-2.344352453947067261e-01,2.814368486404418945e+00,-8.293133229017257690e-02,2.000000000000000000e+00
-1.352356225252151489e-01,2.806669473648071289e+00,-7.140507549047470093e-02,2.000000000000000000e+00
-3.594313561916351318e-02,2.800282955169677734e+00,-5.650838837027549744e-02,2.000000000000000000e+00
6.343878060579299927e-02,2.795480728149414062e+00,-4.010539129376411438e-02,2.000000000000000000e+00
1.628851890563964844e-01,2.792269468307495117e+00,-2.476391196250915527e-02,2.000000000000000000e+00
2.623678147792816162e-01,2.790493488311767578e+00,-1.123703643679618835e-02,2.000000000000000000e+00
3.618651032447814941e-01,2.789974212646484375e+00,5.062941345386207104e-04,2.000000000000000000e+00
4.613623321056365967e-01,2.790535211563110352e+00,1.047400012612342834e-02,2.000000000000000000e+00
5.608505010604858398e-01,2.791999816894531250e+00,1.867049559950828552e-02,2.000000000000000000e+00
6.603254079818725586e-01,2.794191837310791016e+00,2.509791404008865356e-02,2.000000000000000000e+00
7.597866654396057129e-01,2.796935081481933594e+00,2.975522913038730621e-02,2.000000000000000000e+00
8.592369556427001953e-01,2.800053358078002930e+00,3.263922035694122314e-02,2.000000000000000000e+00
9.586807489395141602e-01,2.803369998931884766e+00,3.374435007572174072e-02,2.000000000000000000e+00
1.058123826980590820e+00,2.806707859039306641e+00,3.306328877806663513e-02,2.000000000000000000e+00
1.157572031021118164e+00,2.809888839721679688e+00,3.058718144893646240e-02,2.000000000000000000e+00
1.257030367851257324e+00,2.812733888626098633e+00,2.630570717155933380e-02,2.000000000000000000e+00
1.356501936912536621e+00,2.815062761306762695e+00,2.020744234323501587e-02,2.000000000000000000e+00
1.455987215042114258e+00,2.816694021224975586e+00,1.228008978068828583e-02,2.000000000000000000e+00
1.555482864379882812e+00,2.817445278167724609e+00,2.510544843971729279e-03,2.000000000000000000e+00
1.654980659484863281e+00,2.817132234573364258e+00,-9.114919230341911316e-03,2.000000000000000000e+00
1.754466533660888672e+00,2.815569400787353516e+00,-2.261059172451496124e-02,2.000000000000000000e+00
1.853919148445129395e+00,2.812570810317993164e+00,-3.799131140112876892e-02,2.000000000000000000e+00
1.953309297561645508e+00,2.807948589324951172e+00,-5.527247861027717590e-02,2.000000000000000000e+00
2.052598237991333008e+00,2.801514387130737305e+00,-7.447017729282379150e-02,2.000000000000000000e+00
2.151737213134765625e+00,2.793079853057861328e+00,-9.560135751962661743e-02,2.000000000000000000e+00
2.250664949417114258e+00,2.782456159591674805e+00,-1.186840534210205078e-01,2.000000000000000000e+00
2.349308013916015625e+00,2.769454717636108398e+00,-1.437377631664276123e-01,2.000000000000000000e+00
2.447578668594360352e+00,2.753888845443725586e+00,-1.707837432622909546e-01,2.000000000000000000e+00
2.545373678207397461e+00,2.735572814941406250e+00,-1.998456269502639771e-01,2.000000000000000000e+00
2.642572879791259766e+00,2.714323759078979492e+00,-2.309499830007553101e-01,2.000000000000000000e+00
2.739038705825805664e+00,2.689962625503540039e+00,-2.641269564628601074e-01,2.000000000000000000e+00
2.834614038467407227e+00,2.662314891815185547e+00,-2.994110584259033203e-01,2.000000000000000000e+00
2.929120540618896484e+00,2.631211757659912109e+00,-3.368420004844665527e-01,2.000000000000000000e+00
3.022358417510986328e+00,2.596492052078247070e+00,-3.764656484127044678e-01,1.991998791694641113e+00
3.114104032516479492e+00,2.558003902435302734e+00,-4.183350205421447754e-01,1.966001510620117188e+00
3.204108953475952148e+00,2.515606164932250977e+00,-4.625117480754852295e-01,1.941059589385986328e+00
3.292098045349121094e+00,2.469171524047851562e+00,-5.090671181678771973e-01,1.917242169380187988e+00
3.377768039703369141e+00,2.418587684631347656e+00,-5.580836534500122070e-01,1.894641995429992676e+00
3.460786342620849609e+00,2.363762378692626953e+00,-6.096568703651428223e-01,1.873380899429321289e+00
3.540788888931274414e+00,2.304624795913696289e+00,-6.638979315757751465e-01,1.853616476058959961e+00
3.617378473281860352e+00,2.241131782531738281e+00,-7.209345102310180664e-01,1.835545897483825684e+00
3.690124273300170898e+00,2.173270702362060547e+00,-7.809125781059265137e-01,1.819416761398315430e+00
3.758559465408325195e+00,2.101066827774047852e+00,-8.440009355545043945e-01,1.805539846420288086e+00
3.822180271148681641e+00,2.024589300155639648e+00,-9.103876352310180664e-01,1.794285893440246582e+00
3.880444288253784180e+00,1.943958520889282227e+00,-9.803717732429504395e-01,1.786318898200988770e+00
3.932760000228881836e+00,1.859349966049194336e+00,-1.054343700408935547e+00,1.782377839088439941e+00
3.978563547134399414e+00,1.771047115325927734e+00,-1.130164504051208496e+00,1.778511881828308105e+00
4.017581462860107422e+00,1.679542660713195801e+00,-1.205093860626220703e+00,1.773871421813964844e+00
4.049694061279296875e+00,1.585391998291015625e+00,-1.278944253921508789e+00,1.767402768135070801e+00
4.074807643890380859e+00,1.489137291908264160e+00,-1.352134466171264648e+00,1.759420752525329590e+00
4.092832088470458984e+00,1.391306757926940918e+00,-1.425051689147949219e+00,1.750192403793334961e+00
4.103678703308105469e+00,1.292422890663146973e+00,-1.498078227043151855e+00,1.740005016326904297e+00
4.107260704040527344e+00,1.193010807037353516e+00,-1.571596384048461914e+00,1.729152083396911621e+00
4.103490352630615234e+00,1.093606114387512207e+00,-1.645997762680053711e+00,1.718096256256103516e+00
4.092281341552734375e+00,9.947643280029296875e-01,-1.721691012382507324e+00,1.707547545433044434e+00
4.073549270629882812e+00,8.970697522163391113e-01,-1.799111008644104004e+00,1.698025226593017578e+00
4.047216415405273438e+00,8.011457920074462891e-01,-1.878734469413757324e+00,1.690169215202331543e+00
4.013213634490966797e+00,7.076668143272399902e-01,-1.961094379425048828e+00,1.684755921363830566e+00
3.971491813659667969e+00,6.173712015151977539e-01,-2.046781063079833984e+00,1.682735443115234375e+00
3.922062397003173828e+00,5.310558080673217773e-01,-2.135301351547241211e+00,1.682735443115234375e+00
3.865203142166137695e+00,4.494419395923614502e-01,-2.222509145736694336e+00,1.682735443115234375e+00
3.801638603210449219e+00,3.729301691055297852e-01,-2.304619312286376953e+00,1.687354803085327148e+00
3.732202529907226562e+00,3.016992807388305664e-01,-2.381395578384399414e+00,1.696985483169555664e+00
3.657669782638549805e+00,2.358154803514480591e-01,-2.453235626220703125e+00,1.710761666297912598e+00
3.578738451004028320e+00,1.752664744853973389e-01,-2.520484924316406250e+00,1.727977752685546875e+00
