# x,y,theta,velocity
3.922062397003173828e+00,5.310558080673217773e-01,-2.135301351547241211e+00,1.682735443115234375e+00
3.865203142166137695e+00,4.494419395923614502e-01,-2.222509145736694336e+00,1.682735443115234375e+00
3.801638603210449219e+00,3.729301691055297852e-01,-2.304619312286376953e+00,1.687354803085327148e+00
3.732202529907226562e+00,3.016992807388305664e-01,-2.381395578384399414e+00,1.696985483169555664e+00
3.657669782638549805e+00,2.358154803514480591e-01,-2.453235626220703125e+00,1.710761666297912598e+00
3.563748598098754883e+00,1.395287662744522095e-01,-2.828458786010742188e+00,1.443550825119018555e+00
3.466433525085449219e+00,1.168357655405998230e-01,-2.999526500701904297e+00,1.450111389160156250e+00
3.366642713546752930e+00,1.113367751240730286e-01,3.134363174438476562e+00,1.485337257385253906e+00
3.266915559768676758e+00,1.182782128453254700e-01,3.036050796508789062e+00,1.544242858886718750e+00
3.167938232421875000e+00,1.323866397142410278e-01,2.984307050704956055e+00,1.635259151458740234e+00
3.069449424743652344e+00,1.495954841375350952e-01,2.958548307418823242e+00,1.747015953063964844e+00
2.971326589584350586e+00,1.687827110290527344e-01,2.939069509506225586e+00,1.862996101379394531e+00
2.873570442199707031e+00,1.898169368505477905e-01,2.921577215194702148e+00,1.973635435104370117e+00
2.776156187057495117e+00,2.124297767877578735e-01,2.907081842422485352e+00,2.000000000000000000e+00
2.679042100906372070e+00,2.362910658121109009e-01,2.895681619644165039e+00,2.000000000000000000e+00
2.582181930541992188e+00,2.611155807971954346e-01,2.886777639389038086e+00,2.000000000000000000e+00
2.485531330108642578e+00,2.866961956024169922e-01,2.879753828048706055e+00,2.000000000000000000e+00
2.389046669006347656e+00,3.128741383552551270e-01,2.874322652816772461e+00,2.000000000000000000e+00
2.292683124542236328e+00,3.395021259784698486e-01,2.870504140853881836e+00,2.000000000000000000e+00
2.196393966674804688e+00,3.664181530475616455e-01,2.868447542190551758e+00,2.000000000000000000e+00
2.100131034851074219e+00,3.934451043605804443e-01,2.868251085281372070e+00,2.000000000000000000e+00
2.003846168518066406e+00,4.204006791114807129e-01,2.869916200637817383e+00,2.000000000000000000e+00
1.907493710517883301e+00,4.471068978309631348e-01,2.873378276824951172e+00,2.000000000000000000e+00
1.811029434204101562e+00,4.733938276767730713e-01,2.878576278686523438e+00,2.000000000000000000e+00
1.714410543441772461e+00,4.990952908992767334e-01,2.885499477386474609e+00,2.000000000000000000e+00
1.617594838142395020e+00,5.240432024002075195e-01,2.894194841384887695e+00,2.000000000000000000e+00
1.520539641380310059e+00,5.480616688728332520e-01,2.904764175415039062e+00,2.000000000000000000e+00
1.423205137252807617e+00,5.709607005119323730e-01,2.917365550994873047e+00,2.000000000000000000e+00
1.325557351112365723e+00,5.925297737121582031e-01,2.932211875915527344e+00,2.000000000000000000e+00
1.227571845054626465e+00,6.125318408012390137e-01,2.949543714523315430e+00,2.000000000000000000e+00
1.129234790802001953e+00,6.307038068771362305e-01,2.969562053680419922e+00,2.000000000000000000e+00
1.030541062355041504e+00,6.467655301094055176e-01,2.992377281188964844e+00,2.000000000000000000e+00
9.314912557601928711e-01,6.604311466217041016e-01,3.018028259277343750e+00,2.000000000000000000e+00
8.320924043655395508e-01,6.714122891426086426e-01,3.046645879745483398e+00,2.000000000000000000e+00
7.323732972145080566e-01,6.793937683105468750e-01,3.078673839569091797e+00,2.000000000000000000e+00
6.324064135551452637e-01,6.839928627014160156e-01,3.114938974380493164e+00,2.000000000000000000e+00
5.323288440704345703e-01,6.847269535064697266e-01,-3.126976251602172852e+00,2.000000000000000000e+00
4.323394298553466797e-01,6.810684204101562500e-01,-3.081000328063964844e+00,2.000000000000000000e+00
3.326651453971862793e-01,6.726140379905700684e-01,-3.032387971878051758e+00,2.000000000000000000e+00
2.335223257541656494e-01,6.592699289321899414e-01,-2.984593391418457031e+00,2.000000000000000000e+00
1.350834369659423828e-01,6.413364410400390625e-01,-2.940964698791503906e+00,2.000000000000000000e+00
3.745485469698905945e-02,6.193968653678894043e-01,-2.903488159179687500e+00,2.000000000000000000e+00
-5.934136733412742615e-02,5.941478610038757324e-01,-2.872756719589233398e+00,2.000000000000000000e+00
-1.553748548030853271e-01,5.662712454795837402e-01,-2.848682641983032227e+00,2.000000000000000000e+00
-2.507871389389038086e-01,5.364107489585876465e-01,-2.831139087677001953e+00,2.000000000000000000e+00
-3.457614183425903320e-01,5.051900148391723633e-01,-2.820088386535644531e+00,2.000000000000000000e+00
-4.404960274696350098e-01,4.732263684272766113e-01,-2.815482139587402344e+00,2.000000000000000000e+00
-5.351904034614562988e-01,4.411279559135437012e-01,-2.817167997360229492e+00,2.000000000000000000e+00
-6.300374865531921387e-01,4.094821810722351074e-01,-2.824870824813842773e+00,2.000000000000000000e+00
-7.252157330513000488e-01,3.788461983203887939e-01,-2.838248968124389648e+00,2.000000000000000000e+00
-8.208805918693542480e-01,3.497475683689117432e-01,-2.856971263885498047e+00,2.000000000000000000e+00
-9.171541333198547363e-01,3.226918280124664307e-01,-2.880745887756347656e+00,2.000000000000000000e+00
-1.014115929603576660e+00,2.981675863265991211e-01,-2.909208774566650391e+00,2.000000000000000000e+00
-1.111795663833618164e+00,2.766281068325042725e-01,-2.941705465316772461e+00,2.000000000000000000e+00
-1.210168480873107910e+00,2.584488093852996826e-01,-2.977168798446655273e+00,2.000000000000000000e+00
-1.309151649475097656e+00,2.438824474811553955e-01,-3.014294147491455078e+00,2.000000000000000000e+00
-1.408611416816711426e+00,2.330499589443206787e-01,-3.052090883255004883e+00,2.000000000000000000e+00
-1.508390665054321289e+00,2.260024249553680420e-01,-3.090344667434692383e+00,2.000000000000000000e+00
-1.608343958854675293e+00,2.228050976991653442e-01,-3.129602670669555664e+00,2.000000000000000000e+00
-1.708357095718383789e+00,2.236047238111495972e-01,3.112448453903198242e+00,2.000000000000000000e+00
-1.808315157890319824e+00,2.286347746849060059e-01,3.068700551986694336e+00,2.000000000000000000e+00
-1.908040523529052734e+00,2.381858825683593750e-01,3.021806240081787109e+00,2.000000000000000000e+00
-2.007237911224365234e+00,2.525776624679565430e-01,2.971225500106811523e+00,2.000000000000000000e+00
-2.105494737625122070e+00,2.721548974514007568e-01,2.916216850280761719e+00,1.990177273750305176e+00
-2.202342987060546875e+00,2.973095774650573730e-01,2.855836629867553711e+00,1.935172080993652344e+00
-2.297320604324340820e+00,3.285126388072967529e-01,2.787173748016357422e+00,1.887748003005981445e+00
-2.389733552932739258e+00,3.666524291038513184e-01,2.703866481781005859e+00,1.853693485260009766e+00
-2.478215217590332031e+00,4.131723940372467041e-01,2.602913856506347656e+00,1.827915430068969727e+00
-2.561093807220458984e+00,4.690633714199066162e-01,2.497848987579345703e+00,1.817464351654052734e+00
-2.626455545425415039e+00,5.289645195007324219e-01,2.254015922546386719e+00,1.890028119087219238e+00
-2.686650037765502930e+00,6.081669330596923828e-01,2.187568902969360352e+00,1.885917901992797852e+00
-2.741508960723876953e+00,6.911554336547851562e-01,2.122410535812377930e+00,1.879863977432250977e+00
-2.790893793106079102e+00,7.775140404701232910e-01,2.058268547058105469e+00,1.872026324272155762e+00
-2.834677457809448242e+00,8.668433427810668945e-01,1.994883775711059570e+00,1.862560510635375977e+00
-2.872740030288696289e+00,9.587565064430236816e-01,1.932004094123840332e+00,1.851621031761169434e+00
-2.904966115951538086e+00,1.052875161170959473e+00,1.869382143020629883e+00,1.839364171028137207e+00
-2.931241273880004883e+00,1.148825287818908691e+00,1.806771278381347656e+00,1.825949668884277344e+00
-2.951452016830444336e+00,1.246233344078063965e+00,1.743923544883728027e+00,1.811543107032775879e+00
-2.965482711791992188e+00,1.344721436500549316e+00,1.680585980415344238e+00,1.796318769454956055e+00
-2.973216533660888672e+00,1.443902373313903809e+00,1.616498470306396484e+00,1.780462384223937988e+00
-2.974534273147583008e+00,1.543375015258789062e+00,1.551390528678894043e+00,1.764174461364746094e+00
-2.969314813613891602e+00,1.642718791961669922e+00,1.484978318214416504e+00,1.747922420501708984e+00
-2.957437515258789062e+00,1.741487145423889160e+00,1.416961073875427246e+00,1.732053756713867188e+00
-2.938783645629882812e+00,1.839201211929321289e+00,1.347017288208007812e+00,1.716922640800476074e+00
-2.913240432739257812e+00,1.935343384742736816e+00,1.274801254272460938e+00,1.702943444252014160e+00
-2.880705833435058594e+00,2.029348373413085938e+00,1.199936509132385254e+00,1.690613627433776855e+00
-2.841096162796020508e+00,2.120595932006835938e+00,1.122017264366149902e+00,1.680515408515930176e+00
-2.794353961944580078e+00,2.208401441574096680e+00,1.040580272674560547e+00,1.673411726951599121e+00
-2.740462541580200195e+00,2.292006254196166992e+00,9.551848769187927246e-01,1.670025348663330078e+00
-2.679484844207763672e+00,2.370588779449462891e+00,8.660013675689697266e-01,1.670025348663330078e+00
-2.611719846725463867e+00,2.443400382995605469e+00,7.772997021675109863e-01,1.670025348663330078e+00
-2.537934541702270508e+00,2.510108947753906250e+00,6.938647627830505371e-01,1.674356818199157715e+00
-2.459022045135498047e+00,2.570672273635864258e+00,6.162366867065429688e-01,1.684267640113830566e+00
-2.375793218612670898e+00,2.625158071517944336e+00,5.438885688781738281e-01,1.698585748672485352e+00
-2.288961887359619141e+00,2.673702955245971680e+00,4.764650166034698486e-01,1.716577529907226562e+00
-2.199153900146484375e+00,2.716497182846069336e+00,4.136286377906799316e-01,1.737691640853881836e+00
-2.106914520263671875e+00,2.753767728805541992e+00,3.550677001476287842e-01,1.761420488357543945e+00
-2.012714624404907227e+00,2.785768032073974609e+00,3.005399107933044434e-01,1.787410974502563477e+00
-1.916961431503295898e+00,2.812772512435913086e+00,2.498511672019958496e-01,1.815407752990722656e+00
-1.820002555847167969e+00,2.835071086883544922e+00,2.028495222330093384e-01,1.845236301422119141e+00
-1.722133636474609375e+00,2.852965116500854492e+00,1.594177633523941040e-01,1.876786947250366211e+00
-1.623602867126464844e+00,2.866765499114990234e+00,1.194681525230407715e-01,1.910001993179321289e+00
-1.524615406990051270e+00,2.876789331436157227e+00,8.293846994638442993e-02,1.944868087768554688e+00
-1.425337910652160645e+00,2.883359432220458984e+00,4.978810623288154602e-02,1.981409430503845215e+00
-1.325901985168457031e+00,2.886802434921264648e+00,1.999466679990291595e-02,2.000000000000000000e+00
-1.226407766342163086e+00,2.887448549270629883e+00,-6.449051201343536377e-03,2.000000000000000000e+00
-1.126927495002746582e+00,2.885630369186401367e+00,-2.953802421689033508e-02,2.000000000000000000e+00
-1.027508378028869629e+00,2.881683588027954102e+00,-4.925780743360519409e-02,2.000000000000000000e+00
-9.281760454177856445e-01,2.875945091247558594e+00,-6.558723002672195435e-02,2.000000000000000000e+00
-8.289378881454467773e-01,2.868754625320434570e+00,-7.850106805562973022e-02,2.000000000000000000e+00
-7.297862768173217773e-01,2.860453605651855469e+00,-8.797253668308258057e-02,2.000000000000000000e+00
-6.307017207145690918e-01,2.851385593414306641e+00,-9.397577494382858276e-02,2.000000000000000000e+00
-5.316566228866577148e-01,2.841895580291748047e+00,-9.648779034614562988e-02,2.000000000000000000e+00
-4.326187968254089355e-01,2.832330465316772461e+00,-9.549098461866378784e-02,2.000000000000000000e+00
-3.335551023483276367e-01,2.823038339614868164e+00,-9.097339957952499390e-02,2.000000000000000000e+00
-2.344352453947067261e-01,2.814368486404418945e+00,-8.293133229017257690e-02,2.000000000000000000e+00
-1.352356225252151489e-01,2.806669473648071289e+00,-7.140507549047470093e-02,2.000000000000000000e+00
-3.594313561916351318e-02,2.800282955169677734e+00,-5.650838837027549744e-02,2.000000000000000000e+00
6.343878060579299927e-02,2.795480728149414062e+00,-4.010539129376411438e-02,2.000000000000000000e+00
1.628851890563964844e-01,2.792269468307495117e+00,-2.476391196250915527e-02,2.000000000000000000e+00
2.623678147792816162e-01,2.790493488311767578e+00,-1.123703643679618835e-02,2.000000000000000000e+00
3.618651032447814941e-01,2.789974212646484375e+00,5.062941345386207104e-04,2.000000000000000000e+00
4.613623321056365967e-01,2.790535211563110352e+00,1.047400012612342834e-02,2.000000000000000000e+00
5.608505010604858398e-01,2.791999816894531250e+00,1.867049559950828552e-02,2.000000000000000000e+00
6.603254079818725586e-01,2.794191837310791016e+00,2.509791404008865356e-02,2.000000000000000000e+00
7.597866654396057129e-01,2.796935081481933594e+00,2.975522913038730621e-02,2.000000000000000000e+00
8.592369556427001953e-01,2.800053358078002930e+00,3.263922035694122314e-02,2.000000000000000000e+00
9.586807489395141602e-01,2.803369998931884766e+00,3.374435007572174072e-02,2.000000000000000000e+00
1.058123826980590820e+00,2.806707859039306641e+00,3.306328877806663513e-02,2.000000000000000000e+00
1.157572031021118164e+00,2.809888839721679688e+00,3.058718144893646240e-02,2.000000000000000000e+00
1.257030367851257324e+00,2.812733888626098633e+00,2.630570717155933380e-02,2.000000000000000000e+00
1.356501936912536621e+00,2.815062761306762695e+00,2.020744234323501587e-02,2.000000000000000000e+00
1.455987215042114258e+00,2.816694021224975586e+00,1.228008978068828583e-02,2.000000000000000000e+00
1.555482864379882812e+00,2.817445278167724609e+00,2.510544843971729279e-03,2.000000000000000000e+00
1.654980659484863281e+00,2.817132234573364258e+00,-9.114919230341911316e-03,2.000000000000000000e+00
1.754466533660888672e+00,2.815569400787353516e+00,-2.261059172451496124e-02,2.000000000000000000e+00
1.853919148445129395e+00,2.812570810317993164e+00,-3.799131140112876892e-02,2.000000000000000000e+00
1.953309297561645508e+00,2.807948589324951172e+00,-5.527247861027717590e-02,2.000000000000000000e+00
2.052598237991333008e+00,2.801514387130737305e+00,-7.447017729282379150e-02,2.000000000000000000e+00
2.151737213134765625e+00,2.793079853057861328e+00,-9.560135751962661743e-02,2.000000000000000000e+00
2.250664949417114258e+00,2.782456159591674805e+00,-1.186840534210205078e-01,2.000000000000000000e+00
2.349308013916015625e+00,2.769454717636108398e+00,-1.437377631664276123e-01,2.000000000000000000e+00
2.447578668594360352e+00,2.753888845443725586e+00,-1.707837432622909546e-01,2.000000000000000000e+00
2.545373678207397461e+00,2.735572814941406250e+00,-1.998456269502639771e-01,2.000000000000000000e+00
2.642572879791259766e+00,2.714323759078979492e+00,-2.309499830007553101e-01,2.000000000000000000e+00
2.739038705825805664e+00,2.689962625503540039e+00,-2.641269564628601074e-01,2.000000000000000000e+00
2.834614038467407227e+00,2.662314891815185547e+00,-2.994110584259033203e-01,2.000000000000000000e+00
2.929120540618896484e+00,2.631211757659912109e+00,-3.368420004844665527e-01,2.000000000000000000e+00
3.022358417510986328e+00,2.596492052078247070e+00,-3.764656484127044678e-01,1.991998791694641113e+00
3.114104032516479492e+00,2.558003902435302734e+00,-4.183350205421447754e-01,1.966001510620117188e+00
3.204108953475952148e+00,2.515606164932250977e+00,-4.625117480754852295e-01,1.941059589385986328e+00
3.292098045349121094e+00,2.469171524047851562e+00,-5.090671181678771973e-01,1.917242169380187988e+00
3.377768039703369141e+00,2.418587684631347656e+00,-5.580836534500122070e-01,1.894641995429992676e+00
3.460786342620849609e+00,2.363762378692626953e+00,-6.096568703651428223e-01,1.873380899429321289e+00
3.540788888931274414e+00,2.304624795913696289e+00,-6.638979315757751465e-01,1.853616476058959961e+00
3.617378473281860352e+00,2.241131782531738281e+00,-7.209345102310180664e-01,1.835545897483825684e+00
3.690124273300170898e+00,2.173270702362060547e+00,-7.809125781059265137e-01,1.819416761398315430e+00
3.758559465408325195e+00,2.101066827774047852e+00,-8.440009355545043945e-01,1.805539846420288086e+00
3.822180271148681641e+00,2.024589300155639648e+00,-9.103876352310180664e-01,1.794285893440246582e+00
3.880444288253784180e+00,1.943958520889282227e+00,-9.803717732429504395e-01,1.786318898200988770e+00
3.932760000228881836e+00,1.859349966049194336e+00,-1.054343700408935547e+00,1.782377839088439941e+00
3.978563547134399414e+00,1.771047115325927734e+00,-1.130164504051208496e+00,1.778511881828308105e+00
4.017581462860107422e+00,1.679542660713195801e+00,-1.205093860626220703e+00,1.773871421813964844e+00
4.049694061279296875e+00,1.585391998291015625e+00,-1.278944253921508789e+00,1.767402768135070801e+00
4.074807643890380859e+00,1.489137291908264160e+00,-1.352134466171264648e+00,1.759420752525329590e+00
4.092832088470458984e+00,1.391306757926940918e+00,-1.425051689147949219e+00,1.750192403793334961e+00
4.103678703308105469e+00,1.292422890663146973e+00,-1.498078227043151855e+00,1.740005016326904297e+00
4.107260704040527344e+00,1.193010807037353516e+00,-1.571596384048461914e+00,1.729152083396911621e+00
4.103490352630615234e+00,1.093606114387512207e+00,-1.645997762680053711e+00,1.718096256256103516e+00
4.092281341552734375e+00,9.947643280029296875e-01,-1.721691012382507324e+00,1.707547545433044434e+00
4.073549270629882812e+00,8.970697522163391113e-01,-1.799111008644104004e+00,1.698025226593017578e+00
4.047216415405273438e+00,8.011457920074462891e-01,-1.878734469413757324e+00,1.690169215202331543e+00
4.013213634490966797e+00,7.076668143272399902e-01,-1.961094379425048828e+00,1.684755921363830566e+00
3.971491813659667969e+00,6.173712015151977539e-01,-2.046781063079833984e+00,1.682735443115234375e+00
