# x,y,theta,velocity
4.103490352630615234e+00,1.093606114387512207e+00,-1.645997762680053711e+00,1.718096256256103516e+00
4.092281341552734375e+00,9.947643280029296875e-01,-1.721691012382507324e+00,1.707547545433044434e+00
4.073549270629882812e+00,8.970697522163391113e-01,-1.799111008644104004e+00,1.698025226593017578e+00
4.047216415405273438e+00,8.011457920074462891e-01,-1.878734469413757324e+00,1.690169215202331543e+00
4.013213634490966797e+00,7.076668143272399902e-01,-1.961094379425048828e+00,1.684755921363830566e+00
3.926202774047851562e+00,6.328799128532409668e-01,-2.427177429199218750e+00,2.000000000000000000e+00
3.849712133407592773e+00,5.689167380332946777e-01,-2.464619874954223633e+00,2.000000000000000000e+00
3.770790100097656250e+00,5.079799294471740723e-01,-2.503433227539062500e+00,2.000000000000000000e+00
3.689569234848022461e+00,4.501408636569976807e-01,-2.541894912719726562e+00,2.000000000000000000e+00
3.606199264526367188e+00,3.954502642154693604e-01,-2.579848051071166992e+00,2.000000000000000000e+00
3.520812749862670898e+00,3.439283967018127441e-01,-2.617215156555175781e+00,2.000000000000000000e+00
3.433492183685302734e+00,2.955583035945892334e-01,-2.653847217559814453e+00,2.000000000000000000e+00
3.344335079193115234e+00,2.503077983856201172e-01,-2.689521551132202148e+00,2.000000000000000000e+00
3.253463506698608398e+00,2.081342041492462158e-01,-2.724058389663696289e+00,2.000000000000000000e+00
3.161018610000610352e+00,1.689852327108383179e-01,-2.757333755493164062e+00,2.000000000000000000e+00
3.067157030105590820e+00,1.327994763851165771e-01,-2.789270162582397461e+00,2.000000000000000000e+00
2.972046136856079102e+00,9.950711578130722046e-02,-2.819828748703002930e+00,2.000000000000000000e+00
2.875858783721923828e+00,6.903056055307388306e-02,-2.849001646041870117e+00,2.000000000000000000e+00
2.778769493103027344e+00,4.128508269786834717e-02,-2.876802682876586914e+00,2.000000000000000000e+00
2.680949211120605469e+00,1.617945171892642975e-02,-2.903261661529541016e+00,2.000000000000000000e+00
2.582561254501342773e+00,-6.383391097187995911e-03,-2.928417205810546875e+00,2.000000000000000000e+00
2.483756542205810547e+00,-2.650571428239345551e-02,-2.952312469482421875e+00,2.000000000000000000e+00
2.384668827056884766e+00,-4.429434239864349365e-02,-2.974989652633666992e+00,2.000000000000000000e+00
2.285410165786743164e+00,-5.986000970005989075e-02,-2.996486663818359375e+00,2.000000000000000000e+00
2.186066389083862305e+00,-7.331672310829162598e-02,-3.016834259033203125e+00,2.000000000000000000e+00
2.086692810058593750e+00,-8.478110283613204956e-02,-3.036052942276000977e+00,2.000000000000000000e+00
1.987309217453002930e+00,-9.437172114849090576e-02,-3.054153680801391602e+00,2.000000000000000000e+00
1.887902617454528809e+00,-1.022075638175010681e-01,-3.071143627166748047e+00,2.000000000000000000e+00
1.788442373275756836e+00,-1.084049120545387268e-01,-3.087044477462768555e+00,2.000000000000000000e+00
1.688899278640747070e+00,-1.130736097693443298e-01,-3.101907014846801758e+00,2.000000000000000000e+00
1.589264631271362305e+00,-1.163135692477226257e-01,-3.115812778472900391e+00,2.000000000000000000e+00
1.489556670188903809e+00,-1.182137578725814819e-01,-3.128851890563964844e+00,2.000000000000000000e+00
1.389811277389526367e+00,-1.188549175858497620e-01,-3.141094207763671875e+00,2.000000000000000000e+00
1.290066599845886230e+00,-1.183132156729698181e-01,3.130607128143310547e+00,2.000000000000000000e+00
1.190350055694580078e+00,-1.166636571288108826e-01,3.119872331619262695e+00,2.000000000000000000e+00
1.090673208236694336e+00,-1.139816567301750183e-01,3.109886646270751953e+00,2.000000000000000000e+00
9.910361766815185547e-01,-1.103420928120613098e-01,3.100641250610351562e+00,2.000000000000000000e+00
8.914350271224975586e-01,-1.058180257678031921e-01,3.092113733291625977e+00,2.000000000000000000e+00
7.918680906295776367e-01,-1.004794463515281677e-01,3.084272146224975586e+00,2.000000000000000000e+00
6.923376917839050293e-01,-9.439313411712646484e-02,3.077085733413696289e+00,2.000000000000000000e+00
5.928483009338378906e-01,-8.762344717979431152e-02,3.070533275604248047e+00,2.000000000000000000e+00
4.934040606021881104e-01,-8.023317158222198486e-02,3.064603328704833984e+00,2.000000000000000000e+00
3.940063118934631348e-01,-7.228439301252365112e-02,3.059292793273925781e+00,2.000000000000000000e+00
2.946529984474182129e-01,-6.383895128965377808e-02,3.054601907730102539e+00,2.000000000000000000e+00
1.953397691249847412e-01,-5.495851859450340271e-02,3.050530910491943359e+00,2.000000000000000000e+00
9.606091678142547607e-02,-4.570467770099639893e-02,3.047080039978027344e+00,2.000000000000000000e+00
-3.189311362802982330e-03,-3.613896667957305908e-02,3.044250011444091797e+00,2.000000000000000000e+00
-1.024163439869880676e-01,-2.632313966751098633e-02,3.042045116424560547e+00,2.000000000000000000e+00
-2.016254514455795288e-01,-1.631963066756725311e-02,3.040474414825439453e+00,2.000000000000000000e+00
-3.008221089839935303e-01,-6.192037370055913925e-03,3.039552211761474609e+00,2.000000000000000000e+00
-4.000122547149658203e-01,3.994388971477746964e-03,3.039298295974731445e+00,2.000000000000000000e+00
-4.992026388645172119e-01,1.417224761098623276e-02,3.039737462997436523e+00,2.000000000000000000e+00
-5.984006524085998535e-01,2.427143976092338562e-02,3.040900230407714844e+00,2.000000000000000000e+00
-6.976140737533569336e-01,3.421857208013534546e-02,3.042822599411010742e+00,2.000000000000000000e+00
-7.968506217002868652e-01,4.393634945154190063e-02,3.045546531677246094e+00,2.000000000000000000e+00
-8.961176872253417969e-01,5.334292352199554443e-02,3.049121618270874023e+00,2.000000000000000000e+00
-9.954220056533813477e-01,6.235095113515853882e-02,3.053608179092407227e+00,2.000000000000000000e+00
-1.094769954681396484e+00,7.086649537086486816e-02,3.059076786041259766e+00,2.000000000000000000e+00
-1.194167494773864746e+00,7.878793776035308838e-02,3.065610885620117188e+00,2.000000000000000000e+00
-1.293619751930236816e+00,8.600460737943649292e-02,3.073308944702148438e+00,2.000000000000000000e+00
-1.393129706382751465e+00,9.239496290683746338e-02,3.082288265228271484e+00,2.000000000000000000e+00
-1.492697119712829590e+00,9.782460331916809082e-02,3.092686653137207031e+00,2.000000000000000000e+00
-1.592316746711730957e+00,1.021441668272018433e-01,3.104666948318481445e+00,2.000000000000000000e+00
-1.691980838775634766e+00,1.051866263151168823e-01,3.118424415588378906e+00,2.000000000000000000e+00
-1.791679143905639648e+00,1.067638546228408813e-01,3.134191751480102539e+00,2.000000000000000000e+00
-1.891389489173889160e+00,1.066624745726585388e-01,-3.130938053131103516e+00,2.000000000000000000e+00
-1.991079211235046387e+00,1.046392321586608887e-01,-3.113068580627441406e+00,2.000000000000000000e+00
-2.079523324966430664e+00,1.069471165537834167e-01,2.691334962844848633e+00,1.938598155975341797e+00
-2.167941331863403320e+00,1.525546759366989136e-01,2.638818979263305664e+00,1.922426104545593262e+00
-2.253752231597900391e+00,2.028932124376296997e-01,2.582702159881591797e+00,1.909422755241394043e+00
-2.336499691009521484e+00,2.581194937229156494e-01,2.522806644439697266e+00,1.900028109550476074e+00
-2.415672540664672852e+00,3.183552622795104980e-01,2.458922147750854492e+00,1.894784212112426758e+00
-2.490709066390991211e+00,3.836683630943298340e-01,2.391213893890380859e+00,1.893377900123596191e+00
-2.561078071594238281e+00,4.539841115474700928e-01,2.322034835815429688e+00,1.892040491104125977e+00
-2.626455545425415039e+00,5.289645195007324219e-01,2.254015922546386719e+00,1.890028119087219238e+00
-2.686650037765502930e+00,6.081669330596923828e-01,2.187568902969360352e+00,1.885917901992797852e+00
-2.741508960723876953e+00,6.911554336547851562e-01,2.122410535812377930e+00,1.879863977432250977e+00
-2.790893793106079102e+00,7.775140404701232910e-01,2.058268547058105469e+00,1.872026324272155762e+00
-2.834677457809448242e+00,8.668433427810668945e-01,1.994883775711059570e+00,1.862560510635375977e+00
-2.872740030288696289e+00,9.587565064430236816e-01,1.932004094123840332e+00,1.851621031761169434e+00
-2.904966115951538086e+00,1.052875161170959473e+00,1.869382143020629883e+00,1.839364171028137207e+00
-2.931241273880004883e+00,1.148825287818908691e+00,1.806771278381347656e+00,1.825949668884277344e+00
-2.951452016830444336e+00,1.246233344078063965e+00,1.743923544883728027e+00,1.811543107032775879e+00
-2.965482711791992188e+00,1.344721436500549316e+00,1.680585980415344238e+00,1.796318769454956055e+00
-2.973216533660888672e+00,1.443902373313903809e+00,1.616498470306396484e+00,1.780462384223937988e+00
-2.974534273147583008e+00,1.543375015258789062e+00,1.551390528678894043e+00,1.764174461364746094e+00
-2.969314813613891602e+00,1.642718791961669922e+00,1.484978318214416504e+00,1.747922420501708984e+00
-2.957437515258789062e+00,1.741487145423889160e+00,1.416961073875427246e+00,1.732053756713867188e+00
-2.938783645629882812e+00,1.839201211929321289e+00,1.347017288208007812e+00,1.716922640800476074e+00
-2.913240432739257812e+00,1.935343384742736816e+00,1.274801254272460938e+00,1.702943444252014160e+00
-2.880705833435058594e+00,2.029348373413085938e+00,1.199936509132385254e+00,1.690613627433776855e+00
-2.841096162796020508e+00,2.120595932006835938e+00,1.122017264366149902e+00,1.680515408515930176e+00
-2.794353961944580078e+00,2.208401441574096680e+00,1.040580272674560547e+00,1.673411726951599121e+00
-2.740462541580200195e+00,2.292006254196166992e+00,9.551848769187927246e-01,1.670025348663330078e+00
-2.679484844207763672e+00,2.370588779449462891e+00,8.660013675689697266e-01,1.670025348663330078e+00
-2.611719846725463867e+00,2.443400382995605469e+00,7.772997021675109863e-01,1.670025348663330078e+00
-2.537934541702270508e+00,2.510108947753906250e+00,6.938647627830505371e-01,1.674356818199157715e+00
-2.459022045135498047e+00,2.570672273635864258e+00,6.162366867065429688e-01,1.684267640113830566e+00
-2.375793218612670898e+00,2.625158071517944336e+00,5.438885688781738281e-01,1.698585748672485352e+00
-2.288961887359619141e+00,2.673702955245971680e+00,4.764650166034698486e-01,1.716577529907226562e+00
-2.199153900146484375e+00,2.716497182846069336e+00,4.136286377906799316e-01,1.737691640853881836e+00
-2.106914520263671875e+00,2.753767728805541992e+00,3.550677001476287842e-01,1.761420488357543945e+00
-2.012714624404907227e+00,2.785768032073974609e+00,3.005399107933044434e-01,1.787410974502563477e+00
-1.916961431503295898e+00,2.812772512435913086e+00,2.498511672019958496e-01,1.815407752990722656e+00
-1.820002555847167969e+00,2.835071086883544922e+00,2.028495222330093384e-01,1.845236301422119141e+00
-1.722133636474609375e+00,2.852965116500854492e+00,1.594177633523941040e-01,1.876786947250366211e+00
-1.623602867126464844e+00,2.866765499114990234e+00,1.194681525230407715e-01,1.910001993179321289e+00
-1.524615406990051270e+00,2.876789331436157227e+00,8.293846994638442993e-02,1.944868087768554688e+00
-1.425337910652160645e+00,2.883359432220458984e+00,4.978810623288154602e-02,1.981409430503845215e+00
-1.325901985168457031e+00,2.886802434921264648e+00,1.999466679990291595e-02,2.000000000000000000e+00
-1.226407766342163086e+00,2.887448549270629883e+00,-6.449051201343536377e-03,2.000000000000000000e+00
-1.126927495002746582e+00,2.885630369186401367e+00,-2.953802421689033508e-02,2.000000000000000000e+00
-1.027508378028869629e+00,2.881683588027954102e+00,-4.925780743360519409e-02,2.000000000000000000e+00
-9.281760454177856445e-01,2.875945091247558594e+00,-6.558723002672195435e-02,2.000000000000000000e+00
-8.289378881454467773e-01,2.868754625320434570e+00,-7.850106805562973022e-02,2.000000000000000000e+00
-7.297862768173217773e-01,2.860453605651855469e+00,-8.797253668308258057e-02,2.000000000000000000e+00
-6.307017207145690918e-01,2.851385593414306641e+00,-9.397577494382858276e-02,2.000000000000000000e+00
-5.316566228866577148e-01,2.841895580291748047e+00,-9.648779034614562988e-02,2.000000000000000000e+00
-4.326187968254089355e-01,2.832330465316772461e+00,-9.549098461866378784e-02,2.000000000000000000e+00
-3.335551023483276367e-01,2.823038339614868164e+00,-9.097339957952499390e-02,2.000000000000000000e+00
-2.344352453947067261e-01,2.814368486404418945e+00,-8.293133229017257690e-02,2.000000000000000000e+00
-1.352356225252151489e-01,2.806669473648071289e+00,-7.140507549047470093e-02,2.000000000000000000e+00
-3.594313561916351318e-02,2.800282955169677734e+00,-5.650838837027549744e-02,2.000000000000000000e+00
6.343878060579299927e-02,2.795480728149414062e+00,-4.010539129376411438e-02,2.000000000000000000e+00
1.628851890563964844e-01,2.792269468307495117e+00,-2.476391196250915527e-02,2.000000000000000000e+00
2.623678147792816162e-01,2.790493488311767578e+00,-1.123703643679618835e-02,2.000000000000000000e+00
3.618651032447814941e-01,2.789974212646484375e+00,5.062941345386207104e-04,2.000000000000000000e+00
4.613623321056365967e-01,2.790535211563110352e+00,1.047400012612342834e-02,2.000000000000000000e+00
5.608505010604858398e-01,2.791999816894531250e+00,1.867049559950828552e-02,2.000000000000000000e+00
6.603254079818725586e-01,2.794191837310791016e+00,2.509791404008865356e-02,2.000000000000000000e+00
7.597866654396057129e-01,2.796935081481933594e+00,2.975522913038730621e-02,2.000000000000000000e+00
8.592369556427001953e-01,2.800053358078002930e+00,3.263922035694122314e-02,2.000000000000000000e+00
9.586807489395141602e-01,2.803369998931884766e+00,3.374435007572174072e-02,2.000000000000000000e+00
1.058123826980590820e+00,2.806707859039306641e+00,3.306328877806663513e-02,2.000000000000000000e+00
1.157572031021118164e+00,2.809888839721679688e+00,3.058718144893646240e-02,2.000000000000000000e+00
1.257030367851257324e+00,2.812733888626098633e+00,2.630570717155933380e-02,2.000000000000000000e+00
1.356501936912536621e+00,2.815062761306762695e+00,2.020744234323501587e-02,2.000000000000000000e+00
1.455987215042114258e+00,2.816694021224975586e+00,1.228008978068828583e-02,2.000000000000000000e+00
1.555482864379882812e+00,2.817445278167724609e+00,2.510544843971729279e-03,2.000000000000000000e+00
1.654980659484863281e+00,2.817132234573364258e+00,-9.114919230341911316e-03,2.000000000000000000e+00
1.754466533660888672e+00,2.815569400787353516e+00,-2.261059172451496124e-02,2.000000000000000000e+00
1.853919148445129395e+00,2.812570810317993164e+00,-3.799131140112876892e-02,2.000000000000000000e+00
1.953309297561645508e+00,2.807948589324951172e+00,-5.527247861027717590e-02,2.000000000000000000e+00
2.052598237991333008e+00,2.801514387130737305e+00,-7.447017729282379150e-02,2.000000000000000000e+00
2.151737213134765625e+00,2.793079853057861328e+00,-9.560135751962661743e-02,2.000000000000000000e+00
2.250664949417114258e+00,2.782456159591674805e+00,-1.186840534210205078e-01,2.000000000000000000e+00
2.349308013916015625e+00,2.769454717636108398e+00,-1.437377631664276123e-01,2.000000000000000000e+00
2.447578668594360352e+00,2.753888845443725586e+00,-1.707837432622909546e-01,2.000000000000000000e+00
2.545373678207397461e+00,2.735572814941406250e+00,-1.998456269502639771e-01,2.000000000000000000e+00
2.642572879791259766e+00,2.714323759078979492e+00,-2.309499830007553101e-01,2.000000000000000000e+00
2.739038705825805664e+00,2.689962625503540039e+00,-2.641269564628601074e-01,2.000000000000000000e+00
2.834614038467407227e+00,2.662314891815185547e+00,-2.994110584259033203e-01,2.000000000000000000e+00
2.929120540618896484e+00,2.631211757659912109e+00,-3.368420004844665527e-01,2.000000000000000000e+00
3.022358417510986328e+00,2.596492052078247070e+00,-3.764656484127044678e-01,1.991998791694641113e+00
3.114104032516479492e+00,2.558003902435302734e+00,-4.183350205421447754e-01,1.966001510620117188e+00
3.204108953475952148e+00,2.515606164932250977e+00,-4.625117480754852295e-01,1.941059589385986328e+00
3.292098045349121094e+00,2.469171524047851562e+00,-5.090671181678771973e-01,1.917242169380187988e+00
3.377768039703369141e+00,2.418587684631347656e+00,-5.580836534500122070e-01,1.894641995429992676e+00
3.460786342620849609e+00,2.363762378692626953e+00,-6.096568703651428223e-01,1.873380899429321289e+00
3.540788888931274414e+00,2.304624795913696289e+00,-6.638979315757751465e-01,1.853616476058959961e+00
3.617378473281860352e+00,2.241131782531738281e+00,-7.209345102310180664e-01,1.835545897483825684e+00
3.690124273300170898e+00,2.173270702362060547e+00,-7.809125781059265137e-01,1.819416761398315430e+00
3.758559465408325195e+00,2.101066827774047852e+00,-8.440009355545043945e-01,1.805539846420288086e+00
3.822180271148681641e+00,2.024589300155639648e+00,-9.103876352310180664e-01,1.794285893440246582e+00
3.880444288253784180e+00,1.943958520889282227e+00,-9.803717732429504395e-01,1.786318898200988770e+00
3.932760000228881836e+00,1.859349966049194336e+00,-1.054343700408935547e+00,1.782377839088439941e+00
3.978563547134399414e+00,1.771047115325927734e+00,-1.130164504051208496e+00,1.778511881828308105e+00
4.017581462860107422e+00,1.679542660713195801e+00,-1.205093860626220703e+00,1.773871421813964844e+00
4.049694061279296875e+00,1.585391998291015625e+00,-1.278944253921508789e+00,1.767402768135070801e+00
4.074807643890380859e+00,1.489137291908264160e+00,-1.352134466171264648e+00,1.759420752525329590e+00
4.092832088470458984e+00,1.391306757926940918e+00,-1.425051689147949219e+00,1.750192403793334961e+00
4.103678703308105469e+00,1.292422890663146973e+00,-1.498078227043151855e+00,1.740005016326904297e+00
4.107260704040527344e+00,1.193010807037353516e+00,-1.571596384048461914e+00,1.729152083396911621e+00
