# x,y,theta,velocity
3.321485519409179688e+00,2.463587000966072083e-02,-2.697314023971557617e+00,1.795563578605651855e+00
3.230576038360595703e+00,-1.577900908887386322e-02,-2.748620748519897461e+00,1.822361946105957031e+00
3.137776374816894531e+00,-5.164543166756629944e-02,-2.796362876892089844e+00,1.850966691970825195e+00
3.043424367904663086e+00,-8.320631086826324463e-02,-2.840653657913208008e+00,1.881265282630920410e+00
2.947812318801879883e+00,-1.107202172279357910e-01,-2.881587028503417969e+00,1.913187026977539062e+00
2.855257749557495117e+00,-9.425919502973556519e-02,2.795641183853149414e+00,2.000000000000000000e+00
2.760669469833374023e+00,-6.084093824028968811e-02,2.809558391571044922e+00,2.000000000000000000e+00
2.665585279464721680e+00,-2.886020205914974213e-02,2.824375391006469727e+00,2.000000000000000000e+00
2.570048093795776367e+00,1.740801730193197727e-03,2.838531970977783203e+00,2.000000000000000000e+00
2.474096536636352539e+00,3.101694211363792419e-02,2.852071285247802734e+00,2.000000000000000000e+00
2.377765655517578125e+00,5.902012065052986145e-02,2.865032434463500977e+00,2.000000000000000000e+00
2.281083822250366211e+00,8.580051362514495850e-02,2.877451419830322266e+00,2.000000000000000000e+00
2.184078931808471680e+00,1.114048212766647339e-01,2.889361619949340820e+00,2.000000000000000000e+00
2.086780309677124023e+00,1.358763277530670166e-01,2.900795221328735352e+00,2.000000000000000000e+00
1.989215373992919922e+00,1.592559367418289185e-01,2.911781787872314453e+00,2.000000000000000000e+00
1.891406655311584473e+00,1.815828084945678711e-01,2.922348499298095703e+00,2.000000000000000000e+00
1.793373823165893555e+00,2.028944939374923706e-01,2.932519197463989258e+00,2.000000000000000000e+00
1.695133924484252930e+00,2.232267707586288452e-01,2.942316293716430664e+00,2.000000000000000000e+00
1.596702575683593750e+00,2.426135689020156860e-01,2.951760530471801758e+00,2.000000000000000000e+00
1.498094797134399414e+00,2.610870003700256348e-01,2.960872411727905273e+00,2.000000000000000000e+00
1.399324417114257812e+00,2.786772847175598145e-01,2.969671010971069336e+00,2.000000000000000000e+00
1.300404906272888184e+00,2.954130172729492188e-01,2.978176116943359375e+00,2.000000000000000000e+00
1.201348423957824707e+00,3.113209307193756104e-01,2.986405372619628906e+00,2.000000000000000000e+00
1.102166652679443359e+00,3.264264464378356934e-01,2.994374275207519531e+00,2.000000000000000000e+00
1.002870202064514160e+00,3.407535254955291748e-01,3.002095937728881836e+00,2.000000000000000000e+00
9.034687876701354980e-01,3.543253242969512939e-01,3.009581089019775391e+00,2.000000000000000000e+00
8.039711713790893555e-01,3.671641051769256592e-01,3.016837358474731445e+00,2.000000000000000000e+00
7.043853402137756348e-01,3.792916834354400635e-01,3.023873329162597656e+00,2.000000000000000000e+00
6.047183275222778320e-01,3.907290101051330566e-01,3.030699968338012695e+00,2.000000000000000000e+00
5.049767494201660156e-01,4.014957249164581299e-01,3.037334442138671875e+00,2.000000000000000000e+00
4.051666855812072754e-01,4.116096198558807373e-01,3.043797254562377930e+00,2.000000000000000000e+00
3.052940368652343750e-01,4.210862815380096436e-01,3.050106763839721680e+00,2.000000000000000000e+00
2.053644508123397827e-01,4.299398958683013916e-01,3.056269407272338867e+00,2.000000000000000000e+00
1.053832620382308960e-01,4.381847977638244629e-01,3.062277078628540039e+00,2.000000000000000000e+00
5.355408415198326111e-03,4.458370506763458252e-01,3.068109989166259766e+00,2.000000000000000000e+00
-9.471464157104492188e-02,4.529150724411010742e-01,3.073755979537963867e+00,2.000000000000000000e+00
-1.948228031396865845e-01,4.594373703002929688e-01,3.079233407974243164e+00,2.000000000000000000e+00
-2.949653267860412598e-01,4.654187858104705811e-01,3.084599494934082031e+00,2.000000000000000000e+00
-3.951385617256164551e-01,4.708663523197174072e-01,3.089928150177001953e+00,2.000000000000000000e+00
-4.953390061855316162e-01,4.757801890373229980e-01,3.095221757888793945e+00,2.000000000000000000e+00
-5.955629348754882812e-01,4.801668822765350342e-01,3.100318670272827148e+00,2.000000000000000000e+00
-6.958062648773193359e-01,4.840589761734008789e-01,3.104865074157714844e+00,2.000000000000000000e+00
-7.960645556449890137e-01,4.875341057777404785e-01,3.108354568481445312e+00,2.000000000000000000e+00
-8.963324427604675293e-01,4.907265007495880127e-01,3.110259532928466797e+00,2.000000000000000000e+00
-9.966037869453430176e-01,4.938196837902069092e-01,3.110157251358032227e+00,2.000000000000000000e+00
-1.096871256828308105e+00,4.970326125621795654e-01,3.107765436172485352e+00,2.000000000000000000e+00
-1.197126269340515137e+00,5.006054043769836426e-01,3.102940082550048828e+00,2.000000000000000000e+00
-1.297358512878417969e+00,5.047858357429504395e-01,3.095633983612060547e+00,2.000000000000000000e+00
-1.397554636001586914e+00,5.098233222961425781e-01,3.085780858993530273e+00,2.000000000000000000e+00
-1.497693777084350586e+00,5.159785151481628418e-01,3.073194742202758789e+00,2.000000000000000000e+00
-1.597743034362792969e+00,5.235371589660644531e-01,3.057546138763427734e+00,2.000000000000000000e+00
-1.697652101516723633e+00,5.328239798545837402e-01,3.038363218307495117e+00,2.000000000000000000e+00
-1.797346949577331543e+00,5.442156791687011719e-01,3.015035152435302734e+00,2.000000000000000000e+00
-1.896721124649047852e+00,5.581530332565307617e-01,2.986814498901367188e+00,2.000000000000000000e+00
-1.995626449584960938e+00,5.751524567604064941e-01,2.952808141708374023e+00,2.000000000000000000e+00
-2.093856811523437500e+00,5.958177447319030762e-01,2.911942481994628906e+00,2.000000000000000000e+00
-2.191106557846069336e+00,6.208506822586059570e-01,2.862892389297485352e+00,1.997359156608581543e+00
-2.286918401718139648e+00,6.510618925094604492e-01,2.804031848907470703e+00,1.942703247070312500e+00
-2.380628824234008789e+00,6.873720288276672363e-01,2.733609199523925781e+00,1.896699547767639160e+00
-2.471308946609497070e+00,7.307620048522949219e-01,2.650020360946655273e+00,1.861467719078063965e+00
-2.557703018188476562e+00,7.821792364120483398e-01,2.551962852478027344e+00,1.838786602020263672e+00
-2.638200521469116211e+00,8.424157500267028809e-01,2.439469575881958008e+00,1.828341007232666016e+00
-2.711000204086303711e+00,9.118570089340209961e-01,2.315715312957763672e+00,1.826290965080261230e+00
-2.774431943893432617e+00,9.901480674743652344e-01,2.186698675155639648e+00,1.826290965080261230e+00
-2.827247381210327148e+00,1.076107859611511230e+00,2.058764696121215820e+00,1.826290965080261230e+00
-2.868845224380493164e+00,1.168024301528930664e+00,1.937624454498291016e+00,1.830604791641235352e+00
-2.899450302124023438e+00,1.264029622077941895e+00,1.828177452087402344e+00,1.844093680381774902e+00
-2.920019865036010742e+00,1.362442731857299805e+00,1.732919216156005859e+00,1.869317293167114258e+00
-2.931841611862182617e+00,1.462071299552917480e+00,1.651303648948669434e+00,1.905991792678833008e+00
-2.936144590377807617e+00,1.562296867370605469e+00,1.581640720367431641e+00,1.952213048934936523e+00
-2.934016227722167969e+00,1.662589788436889648e+00,1.522197008132934570e+00,2.000000000000000000e+00
-2.926401138305664062e+00,1.762623310089111328e+00,1.471308946609497070e+00,2.000000000000000000e+00
-2.914093494415283203e+00,1.862184047698974609e+00,1.424018263816833496e+00,2.000000000000000000e+00
-2.880705833435058594e+00,2.029348373413085938e+00,1.199936509132385254e+00,1.690613627433776855e+00
-2.841096162796020508e+00,2.120595932006835938e+00,1.122017264366149902e+00,1.680515408515930176e+00
-2.794353961944580078e+00,2.208401441574096680e+00,1.040580272674560547e+00,1.673411726951599121e+00
-2.740462541580200195e+00,2.292006254196166992e+00,9.551848769187927246e-01,1.670025348663330078e+00
-2.679484844207763672e+00,2.370588779449462891e+00,8.660013675689697266e-01,1.670025348663330078e+00
-2.611719846725463867e+00,2.443400382995605469e+00,7.772997021675109863e-01,1.670025348663330078e+00
-2.537934541702270508e+00,2.510108947753906250e+00,6.938647627830505371e-01,1.674356818199157715e+00
-2.459022045135498047e+00,2.570672273635864258e+00,6.162366867065429688e-01,1.684267640113830566e+00
-2.375793218612670898e+00,2.625158071517944336e+00,5.438885688781738281e-01,1.698585748672485352e+00
-2.288961887359619141e+00,2.673702955245971680e+00,4.764650166034698486e-01,1.716577529907226562e+00
-2.199153900146484375e+00,2.716497182846069336e+00,4.136286377906799316e-01,1.737691640853881836e+00
-2.106914520263671875e+00,2.753767728805541992e+00,3.550677001476287842e-01,1.761420488357543945e+00
-2.012714624404907227e+00,2.785768032073974609e+00,3.005399107933044434e-01,1.787410974502563477e+00
-1.916961431503295898e+00,2.812772512435913086e+00,2.498511672019958496e-01,1.815407752990722656e+00
-1.820002555847167969e+00,2.835071086883544922e+00,2.028495222330093384e-01,1.845236301422119141e+00
-1.722133636474609375e+00,2.852965116500854492e+00,1.594177633523941040e-01,1.876786947250366211e+00
-1.623602867126464844e+00,2.866765499114990234e+00,1.194681525230407715e-01,1.910001993179321289e+00
-1.524615406990051270e+00,2.876789331436157227e+00,8.293846994638442993e-02,1.944868087768554688e+00
-1.425337910652160645e+00,2.883359432220458984e+00,4.978810623288154602e-02,1.981409430503845215e+00
-1.325901985168457031e+00,2.886802434921264648e+00,1.999466679990291595e-02,2.000000000000000000e+00
-1.226407766342163086e+00,2.887448549270629883e+00,-6.449051201343536377e-03,2.000000000000000000e+00
-1.126927495002746582e+00,2.885630369186401367e+00,-2.953802421689033508e-02,2.000000000000000000e+00
-1.027508378028869629e+00,2.881683588027954102e+00,-4.925780743360519409e-02,2.000000000000000000e+00
-9.281760454177856445e-01,2.875945091247558594e+00,-6.558723002672195435e-02,2.000000000000000000e+00
-8.289378881454467773e-01,2.868754625320434570e+00,-7.850106805562973022e-02,2.000000000000000000e+00
-7.297862768173217773e-01,2.860453605651855469e+00,-8.797253668308258057e-02,2.000000000000000000e+00
-6.307017207145690918e-01,2.851385593414306641e+00,-9.397577494382858276e-02,2.000000000000000000e+00
-5.316566228866577148e-01,2.841895580291748047e+00,-9.648779034614562988e-02,2.000000000000000000e+00
-4.326187968254089355e-01,2.832330465316772461e+00,-9.549098461866378784e-02,2.000000000000000000e+00
-3.335551023483276367e-01,2.823038339614868164e+00,-9.097339957952499390e-02,2.000000000000000000e+00
-2.344352453947067261e-01,2.814368486404418945e+00,-8.293133229017257690e-02,2.000000000000000000e+00
-1.352356225252151489e-01,2.806669473648071289e+00,-7.140507549047470093e-02,2.000000000000000000e+00
-3.594313561916351318e-02,2.800282955169677734e+00,-5.650838837027549744e-02,2.000000000000000000e+00
6.343878060579299927e-02,2.795480728149414062e+00,-4.010539129376411438e-02,2.000000000000000000e+00
1.628851890563964844e-01,2.792269468307495117e+00,-2.476391196250915527e-02,2.000000000000000000e+00
2.623678147792816162e-01,2.790493488311767578e+00,-1.123703643679618835e-02,2.000000000000000000e+00
3.618651032447814941e-01,2.789974212646484375e+00,5.062941345386207104e-04,2.000000000000000000e+00
4.613623321056365967e-01,2.790535211563110352e+00,1.047400012612342834e-02,2.000000000000000000e+00
5.608505010604858398e-01,2.791999816894531250e+00,1.867049559950828552e-02,2.000000000000000000e+00
6.603254079818725586e-01,2.794191837310791016e+00,2.509791404008865356e-02,2.000000000000000000e+00
7.597866654396057129e-01,2.796935081481933594e+00,2.975522913038730621e-02,2.000000000000000000e+00
8.592369556427001953e-01,2.800053358078002930e+00,3.263922035694122314e-02,2.000000000000000000e+00
9.586807489395141602e-01,2.803369998931884766e+00,3.374435007572174072e-02,2.000000000000000000e+00
1.058123826980590820e+00,2.806707859039306641e+00,3.306328877806663513e-02,2.000000000000000000e+00
1.157572031021118164e+00,2.809888839721679688e+00,3.058718144893646240e-02,2.000000000000000000e+00
1.257030367851257324e+00,2.812733888626098633e+00,2.630570717155933380e-02,2.000000000000000000e+00
1.356501936912536621e+00,2.815062761306762695e+00,2.020744234323501587e-02,2.000000000000000000e+00
1.455987215042114258e+00,2.816694021224975586e+00,1.228008978068828583e-02,2.000000000000000000e+00
1.555482864379882812e+00,2.817445278167724609e+00,2.510544843971729279e-03,2.000000000000000000e+00
1.654980659484863281e+00,2.817132234573364258e+00,-9.114919230341911316e-03,2.000000000000000000e+00
1.754466533660888672e+00,2.815569400787353516e+00,-2.261059172451496124e-02,2.000000000000000000e+00
1.853919148445129395e+00,2.812570810317993164e+00,-3.799131140112876892e-02,2.000000000000000000e+00
1.953309297561645508e+00,2.807948589324951172e+00,-5.527247861027717590e-02,2.000000000000000000e+00
2.052598237991333008e+00,2.801514387130737305e+00,-7.447017729282379150e-02,2.000000000000000000e+00
2.151737213134765625e+00,2.793079853057861328e+00,-9.560135751962661743e-02,2.000000000000000000e+00
2.250664949417114258e+00,2.782456159591674805e+00,-1.186840534210205078e-01,2.000000000000000000e+00
2.349308013916015625e+00,2.769454717636108398e+00,-1.437377631664276123e-01,2.000000000000000000e+00
2.447578668594360352e+00,2.753888845443725586e+00,-1.707837432622909546e-01,2.000000000000000000e+00
2.545373678207397461e+00,2.735572814941406250e+00,-1.998456269502639771e-01,2.000000000000000000e+00
2.642572879791259766e+00,2.714323759078979492e+00,-2.309499830007553101e-01,2.000000000000000000e+00
2.739038705825805664e+00,2.689962625503540039e+00,-2.641269564628601074e-01,2.000000000000000000e+00
2.834614038467407227e+00,2.662314891815185547e+00,-2.994110584259033203e-01,2.000000000000000000e+00
2.929120540618896484e+00,2.631211757659912109e+00,-3.368420004844665527e-01,2.000000000000000000e+00
3.022358417510986328e+00,2.596492052078247070e+00,-3.764656484127044678e-01,1.991998791694641113e+00
3.114104032516479492e+00,2.558003902435302734e+00,-4.183350205421447754e-01,1.966001510620117188e+00
3.204108953475952148e+00,2.515606164932250977e+00,-4.625117480754852295e-01,1.941059589385986328e+00
3.292098045349121094e+00,2.469171524047851562e+00,-5.090671181678771973e-01,1.917242169380187988e+00
3.377768039703369141e+00,2.418587684631347656e+00,-5.580836534500122070e-01,1.894641995429992676e+00
3.460786342620849609e+00,2.363762378692626953e+00,-6.096568703651428223e-01,1.873380899429321289e+00
3.540788888931274414e+00,2.304624795913696289e+00,-6.638979315757751465e-01,1.853616476058959961e+00
3.617378473281860352e+00,2.241131782531738281e+00,-7.209345102310180664e-01,1.835545897483825684e+00
3.690124273300170898e+00,2.173270702362060547e+00,-7.809125781059265137e-01,1.819416761398315430e+00
3.758559465408325195e+00,2.101066827774047852e+00,-8.440009355545043945e-01,1.805539846420288086e+00
3.822180271148681641e+00,2.024589300155639648e+00,-9.103876352310180664e-01,1.794285893440246582e+00
3.880444288253784180e+00,1.943958520889282227e+00,-9.803717732429504395e-01,1.786318898200988770e+00
3.932760000228881836e+00,1.859349966049194336e+00,-1.054343700408935547e+00,1.782377839088439941e+00
3.978563547134399414e+00,1.771047115325927734e+00,-1.130164504051208496e+00,1.778511881828308105e+00
4.017581462860107422e+00,1.679542660713195801e+00,-1.205093860626220703e+00,1.773871421813964844e+00
4.049694061279296875e+00,1.585391998291015625e+00,-1.278944253921508789e+00,1.767402768135070801e+00
4.074807643890380859e+00,1.489137291908264160e+00,-1.352134466171264648e+00,1.759420752525329590e+00
4.092832088470458984e+00,1.391306757926940918e+00,-1.425051689147949219e+00,1.750192403793334961e+00
4.103678703308105469e+00,1.292422890663146973e+00,-1.498078227043151855e+00,1.740005016326904297e+00
4.107260704040527344e+00,1.193010807037353516e+00,-1.571596384048461914e+00,1.729152083396911621e+00
4.103490352630615234e+00,1.093606114387512207e+00,-1.645997762680053711e+00,1.718096256256103516e+00
4.092281341552734375e+00,9.947643280029296875e-01,-1.721691012382507324e+00,1.707547545433044434e+00
4.073549270629882812e+00,8.970697522163391113e-01,-1.799111008644104004e+00,1.698025226593017578e+00
4.047216415405273438e+00,8.011457920074462891e-01,-1.878734469413757324e+00,1.690169215202331543e+00
4.013213634490966797e+00,7.076668143272399902e-01,-1.961094379425048828e+00,1.684755921363830566e+00
3.971491813659667969e+00,6.173712015151977539e-01,-2.046781063079833984e+00,1.682735443115234375e+00
3.922062397003173828e+00,5.310558080673217773e-01,-2.135301351547241211e+00,1.682735443115234375e+00
3.865203142166137695e+00,4.494419395923614502e-01,-2.222509145736694336e+00,1.682735443115234375e+00
3.801638603210449219e+00,3.729301691055297852e-01,-2.304619312286376953e+00,1.687354803085327148e+00
3.732202529907226562e+00,3.016992807388305664e-01,-2.381395578384399414e+00,1.696985483169555664e+00
3.657669782638549805e+00,2.358154803514480591e-01,-2.453235626220703125e+00,1.710761666297912598e+00
3.578738451004028320e+00,1.752664744853973389e-01,-2.520484924316406250e+00,1.727977752685546875e+00
3.496034860610961914e+00,1.199771240353584290e-01,-2.583428144454956055e+00,1.748104929924011230e+00
3.410118341445922852e+00,6.982208788394927979e-02,-2.642305135726928711e+00,1.770735383033752441e+00
