# time,x,y,theta,velocity
1.762310134830125093e+09,1.301996135711669922e+01,-7.792263984680175781e+00,-1.400038838386535645e+00,3.999979972839355469e+00
1.762310134849798441e+09,1.303310012817382812e+01,-7.870120525360107422e+00,-1.398907303810119629e+00,3.999981880187988281e+00
1.762310134869889021e+09,1.304636955261230469e+01,-7.947720527648925781e+00,-1.397836208343505859e+00,3.999983549118041992e+00
1.762310134889786959e+09,1.306049060821533203e+01,-8.028556823730468750e+00,-1.396349310874938965e+00,3.999985218048095703e+00
1.762310134909868002e+09,1.307398986816406250e+01,-8.105978012084960938e+00,-1.393895864486694336e+00,3.999986410140991211e+00
1.762310134929631948e+09,1.308710956573486328e+01,-8.182882308959960938e+00,-1.392331480979919434e+00,3.999987840652465820e+00
1.762310134949951410e+09,1.310121345520019531e+01,-8.261743545532226562e+00,-1.391851902008056641e+00,3.999988794326782227e+00
1.762310134969584942e+09,1.311544704437255859e+01,-8.340541839599609375e+00,-1.391806840896606445e+00,3.999989986419677734e+00
1.762310134990049839e+09,1.313047885894775391e+01,-8.421675682067871094e+00,-1.391861200332641602e+00,3.999990940093994141e+00
1.762310135009698629e+09,1.314720249176025391e+01,-8.507053375244140625e+00,-1.392275214195251465e+00,3.999991655349731445e+00
1.762310135030151844e+09,1.316257667541503906e+01,-8.588527679443359375e+00,-1.394266009330749512e+00,3.999992370605468750e+00
1.762310135049649000e+09,1.317702102661132812e+01,-8.666946411132812500e+00,-1.395734190940856934e+00,3.999993085861206055e+00
1.762310135070247889e+09,1.319065761566162109e+01,-8.737504005432128906e+00,-1.396010875701904297e+00,3.999993801116943359e+00
1.762310135089516401e+09,1.321226024627685547e+01,-8.843307495117187500e+00,-1.400242447853088379e+00,3.999994277954101562e+00
1.762310135110185862e+09,1.322698593139648438e+01,-8.922608375549316406e+00,-1.401610493659973145e+00,3.999994993209838867e+00
1.762310135129680395e+09,1.323799610137939453e+01,-8.988584518432617188e+00,-1.401016712188720703e+00,3.999995470046997070e+00
1.762310135150179148e+09,1.325793743133544922e+01,-9.093357086181640625e+00,-1.400262951850891113e+00,3.999995708465576172e+00
1.762310135169619560e+09,1.326799869537353516e+01,-9.153906822204589844e+00,-1.399847984313964844e+00,3.999996185302734375e+00
1.762310135190346956e+09,1.328465366363525391e+01,-9.240358352661132812e+00,-1.396954417228698730e+00,3.999996662139892578e+00
1.762310135209615946e+09,1.330800151824951172e+01,-9.346973419189453125e+00,-1.393630504608154297e+00,3.999996900558471680e+00
1.762310135230039358e+09,1.331644344329833984e+01,-9.398209571838378906e+00,-1.392489314079284668e+00,3.999997138977050781e+00
1.762310135249889374e+09,1.333133697509765625e+01,-9.479597091674804688e+00,-1.390048384666442871e+00,3.999997377395629883e+00
1.762310135269709349e+09,1.335013008117675781e+01,-9.568482398986816406e+00,-1.385898113250732422e+00,3.999997615814208984e+00
1.762310135289646149e+09,1.336415386199951172e+01,-9.643287658691406250e+00,-1.381687879562377930e+00,3.999997854232788086e+00
1.762310135309701681e+09,1.338289451599121094e+01,-9.732098579406738281e+00,-1.372443437576293945e+00,3.999998092651367188e+00
1.762310135329917908e+09,1.340059947967529297e+01,-9.816636085510253906e+00,-1.368697166442871094e+00,3.999998331069946289e+00
1.762310135350192547e+09,1.341573238372802734e+01,-9.894929885864257812e+00,-1.366236209869384766e+00,3.999998331069946289e+00
1.762310135369612694e+09,1.343237590789794922e+01,-9.978196144104003906e+00,-1.365520715713500977e+00,3.999998569488525391e+00
1.762310135390078783e+09,1.344743442535400391e+01,-1.005856990814208984e+01,-1.363987922668457031e+00,3.999998807907104492e+00
1.762310135409817696e+09,1.346241283416748047e+01,-1.013537883758544922e+01,-1.364356279373168945e+00,3.999998807907104492e+00
1.762310135429921627e+09,1.347995090484619141e+01,-1.022246456146240234e+01,-1.361331820487976074e+00,3.999998807907104492e+00
1.762310135449635267e+09,1.349526977539062500e+01,-1.030254364013671875e+01,-1.358236432075500488e+00,3.999999046325683594e+00
1.762310135470096588e+09,1.351109409332275391e+01,-1.038142108917236328e+01,-1.355452537536621094e+00,3.999999046325683594e+00
1.762310135489506483e+09,1.352734279632568359e+01,-1.046138954162597656e+01,-1.352744340896606445e+00,3.999999284744262695e+00
1.762310135510164261e+09,1.354293537139892578e+01,-1.053833770751953125e+01,-1.350210189819335938e+00,3.999999284744262695e+00
1.762310135529531002e+09,1.355917644500732422e+01,-1.061783981323242188e+01,-1.348398804664611816e+00,3.999999284744262695e+00
1.762310135550133228e+09,1.357538032531738281e+01,-1.069606018066406250e+01,-1.346378684043884277e+00,3.999999284744262695e+00
1.762310135569670916e+09,1.359183025360107422e+01,-1.077524566650390625e+01,-1.343973636627197266e+00,3.999999523162841797e+00
1.762310135590200663e+09,1.360837936401367188e+01,-1.085413551330566406e+01,-1.342068672180175781e+00,3.999999523162841797e+00
1.762310135609601021e+09,1.362437820434570312e+01,-1.092984008789062500e+01,-1.339694142341613770e+00,3.999999523162841797e+00
1.762310135630246639e+09,1.364078330993652344e+01,-1.100718975067138672e+01,-1.337715387344360352e+00,3.999999523162841797e+00
1.762310135649734259e+09,1.365763378143310547e+01,-1.108540058135986328e+01,-1.336296081542968750e+00,3.999999523162841797e+00
1.762310135669682741e+09,1.367410755157470703e+01,-1.116231346130371094e+01,-1.334335803985595703e+00,3.999999761581420898e+00
1.762310135689629793e+09,1.369129848480224609e+01,-1.124024105072021484e+01,-1.332095146179199219e+00,3.999999761581420898e+00
1.762310135709760427e+09,1.370934963226318359e+01,-1.131910228729248047e+01,-1.329852700233459473e+00,3.999999761581420898e+00
1.762310135729852676e+09,1.372658348083496094e+01,-1.139422512054443359e+01,-1.326399087905883789e+00,3.999999761581420898e+00
1.762310135749944210e+09,1.374504470825195312e+01,-1.146890735626220703e+01,-1.320497155189514160e+00,3.999999761581420898e+00
1.762310135769750834e+09,1.376395702362060547e+01,-1.154566860198974609e+01,-1.313452124595642090e+00,3.999999761581420898e+00
1.762310135790194273e+09,1.378340816497802734e+01,-1.162384986877441406e+01,-1.305088758468627930e+00,3.999999761581420898e+00
1.762310135809756994e+09,1.380224037170410156e+01,-1.170158290863037109e+01,-1.297203540802001953e+00,3.999999761581420898e+00
1.762310135829955578e+09,1.382223415374755859e+01,-1.178102016448974609e+01,-1.290239453315734863e+00,3.999999761581420898e+00
1.762310135849548817e+09,1.384100246429443359e+01,-1.185730457305908203e+01,-1.284356355667114258e+00,3.999999761581420898e+00
1.762310135869923592e+09,1.386086654663085938e+01,-1.193657684326171875e+01,-1.279872298240661621e+00,3.999999761581420898e+00
1.762310135889493704e+09,1.388456439971923828e+01,-1.201932048797607422e+01,-1.263635396957397461e+00,4.000000000000000000e+00
1.762310135910115957e+09,1.390601158142089844e+01,-1.209673118591308594e+01,-1.256594777107238770e+00,4.000000000000000000e+00
1.762310135929591417e+09,1.392929553985595703e+01,-1.218039703369140625e+01,-1.251773834228515625e+00,4.000000000000000000e+00
1.762310135950371504e+09,1.394994163513183594e+01,-1.225520515441894531e+01,-1.245491981506347656e+00,4.000000000000000000e+00
1.762310135969643116e+09,1.397256088256835938e+01,-1.233292388916015625e+01,-1.235732436180114746e+00,4.000000000000000000e+00
1.762310135990072489e+09,1.399499130249023438e+01,-1.240817737579345703e+01,-1.227966785430908203e+00,4.000000000000000000e+00
1.762310136009648323e+09,1.401843547821044922e+01,-1.248568916320800781e+01,-1.221470952033996582e+00,4.000000000000000000e+00
1.762310136030177832e+09,1.404053497314453125e+01,-1.255770683288574219e+01,-1.213017463684082031e+00,4.000000000000000000e+00
1.762310136049746513e+09,1.406331729888916016e+01,-1.263269519805908203e+01,-1.208027720451354980e+00,4.000000000000000000e+00
1.762310136069809914e+09,1.408814525604248047e+01,-1.271191501617431641e+01,-1.203743577003479004e+00,4.000000000000000000e+00
1.762310136089685202e+09,1.411744117736816406e+01,-1.279659271240234375e+01,-1.190920591354370117e+00,4.000000000000000000e+00
1.762310136109694481e+09,1.414343452453613281e+01,-1.287069606781005859e+01,-1.180149555206298828e+00,4.000000000000000000e+00
1.762310136129765511e+09,1.417047691345214844e+01,-1.294789791107177734e+01,-1.171214461326599121e+00,4.000000000000000000e+00
1.762310136150128603e+09,1.419680500030517578e+01,-1.302183055877685547e+01,-1.163869619369506836e+00,4.000000000000000000e+00
1.762310136169672489e+09,1.422424793243408203e+01,-1.309511089324951172e+01,-1.154980182647705078e+00,4.000000000000000000e+00
1.762310136189978361e+09,1.425309562683105469e+01,-1.317074775695800781e+01,-1.147739291191101074e+00,4.000000000000000000e+00
1.762310136209707499e+09,1.428172683715820312e+01,-1.324444389343261719e+01,-1.141024231910705566e+00,4.000000000000000000e+00
1.762310136229766130e+09,1.431314277648925781e+01,-1.332151031494140625e+01,-1.131314277648925781e+00,4.000000000000000000e+00
1.762310136249720573e+09,1.434395122528076172e+01,-1.339525127410888672e+01,-1.125128269195556641e+00,4.000000000000000000e+00
1.762310136269953489e+09,1.437472343444824219e+01,-1.346846961975097656e+01,-1.121967792510986328e+00,4.000000000000000000e+00
1.762310136289805412e+09,1.440888595581054688e+01,-1.354686355590820312e+01,-1.109279632568359375e+00,4.000000000000000000e+00
1.762310136310420752e+09,1.444227313995361328e+01,-1.362195205688476562e+01,-1.103726387023925781e+00,4.000000000000000000e+00
1.762310136329756021e+09,1.447504043579101562e+01,-1.369440841674804688e+01,-1.101300239562988281e+00,4.000000000000000000e+00
1.762310136349923849e+09,1.450791740417480469e+01,-1.376702404022216797e+01,-1.100227832794189453e+00,4.000000000000000000e+00
1.762310136369760990e+09,1.454166603088378906e+01,-1.384114456176757812e+01,-1.099301695823669434e+00,4.000000000000000000e+00
1.762310136390208483e+09,1.457492446899414062e+01,-1.391310119628906250e+01,-1.098379731178283691e+00,4.000000000000000000e+00
1.762310136409562111e+09,1.460802459716796875e+01,-1.398448276519775391e+01,-1.097534298896789551e+00,4.000000000000000000e+00
1.762310136430452108e+09,1.464185905456542969e+01,-1.405637550354003906e+01,-1.094495773315429688e+00,4.000000000000000000e+00
1.762310136449674606e+09,1.467628669738769531e+01,-1.413064575195312500e+01,-1.091481566429138184e+00,4.000000000000000000e+00
1.762310136469825506e+09,1.470915985107421875e+01,-1.420089530944824219e+01,-1.090491175651550293e+00,4.000000000000000000e+00
1.762310136489793062e+09,1.474574661254882812e+01,-1.427727985382080078e+01,-1.081317543983459473e+00,3.989569902420043945e+00
1.762310136509919643e+09,1.478087615966796875e+01,-1.434937191009521484e+01,-1.075231194496154785e+00,3.968361616134643555e+00
1.762310136529672623e+09,1.481577396392822266e+01,-1.441997337341308594e+01,-1.071952819824218750e+00,3.939447402954101562e+00
1.762310136549833536e+09,1.484962558746337891e+01,-1.448848056793212891e+01,-1.069819688796997070e+00,3.904837846755981445e+00
1.762310136569617510e+09,1.488813495635986328e+01,-1.456224536895751953e+01,-1.058833718299865723e+00,3.882141828536987305e+00
1.762310136589963913e+09,1.492507266998291016e+01,-1.463243675231933594e+01,-1.053574681282043457e+00,3.850964069366455078e+00
1.762310136609616041e+09,1.496101856231689453e+01,-1.470020771026611328e+01,-1.050311446189880371e+00,3.813574075698852539e+00
1.762310136630223989e+09,1.499697875976562500e+01,-1.476707839965820312e+01,-1.047407388687133789e+00,3.771455526351928711e+00
1.762310136649804354e+09,1.503263759613037109e+01,-1.483354377746582031e+01,-1.046344041824340820e+00,3.743834972381591797e+00
1.762310136670080662e+09,1.506687259674072266e+01,-1.489615154266357422e+01,-1.047047853469848633e+00,3.707463026046752930e+00
1.762310136690215826e+09,1.510345268249511719e+01,-1.496363830566406250e+01,-1.046131134033203125e+00,3.664772033691406250e+00
1.762310136710135460e+09,1.513887596130371094e+01,-1.502867984771728516e+01,-1.045324683189392090e+00,3.617997646331787109e+00
1.762310136729789734e+09,1.517351913452148438e+01,-1.509096527099609375e+01,-1.044539451599121094e+00,3.587324142456054688e+00
1.762310136750251532e+09,1.520739841461181641e+01,-1.515202713012695312e+01,-1.046309232711791992e+00,3.548470973968505859e+00
1.762310136769503832e+09,1.525792598724365234e+01,-1.524494171142578125e+01,-1.049382805824279785e+00,3.504268407821655273e+00
1.762310136790193081e+09,1.529361915588378906e+01,-1.530767726898193359e+01,-1.052710771560668945e+00,3.456539154052734375e+00
1.762310136809507370e+09,1.532712173461914062e+01,-1.536522960662841797e+01,-1.056232929229736328e+00,3.425239562988281250e+00
1.762310136830005884e+09,1.536111068725585938e+01,-1.542424678802490234e+01,-1.060568809509277344e+00,3.386395215988159180e+00
1.762310136849673748e+09,1.539588737487792969e+01,-1.548430824279785156e+01,-1.065256237983703613e+00,3.344000816345214844e+00
1.762310136870566368e+09,1.542757511138916016e+01,-1.553984451293945312e+01,-1.071916580200195312e+00,3.316199779510498047e+00
1.762310136889590025e+09,1.545995616912841797e+01,-1.559839057922363281e+01,-1.079922556877136230e+00,3.282010316848754883e+00
1.762310136910157919e+09,1.549153327941894531e+01,-1.565498638153076172e+01,-1.087730288505554199e+00,3.244284152984619141e+00
1.762310136929620504e+09,1.552157211303710938e+01,-1.570782566070556641e+01,-1.096384167671203613e+00,3.219544410705566406e+00
1.762310136950011730e+09,1.555303573608398438e+01,-1.576508140563964844e+01,-1.106392383575439453e+00,3.188152074813842773e+00
1.762310136969612598e+09,1.558329200744628906e+01,-1.582137107849121094e+01,-1.115755677223205566e+00,3.152398586273193359e+00
1.762310136989675283e+09,1.561445617675781250e+01,-1.587982749938964844e+01,-1.125839948654174805e+00,3.128952264785766602e+00
1.762310137009711027e+09,1.564278221130371094e+01,-1.593159770965576172e+01,-1.134850740432739258e+00,3.098425626754760742e+00
1.762310137029698133e+09,1.567056560516357422e+01,-1.598902225494384766e+01,-1.149756908416748047e+00,3.078406810760498047e+00
1.762310137049978018e+09,1.569785785675048828e+01,-1.604470825195312500e+01,-1.163197278976440430e+00,3.050152778625488281e+00
1.762310137070037365e+09,1.572374534606933594e+01,-1.609732437133789062e+01,-1.175253391265869141e+00,3.016534090042114258e+00
1.762310137089699030e+09,1.574944305419921875e+01,-1.615387535095214844e+01,-1.190066814422607422e+00,2.994488000869750977e+00
1.762310137110051155e+09,1.577328681945800781e+01,-1.620685195922851562e+01,-1.204091906547546387e+00,2.964987754821777344e+00
1.762310137129711151e+09,1.579792308807373047e+01,-1.626196479797363281e+01,-1.217255949974060059e+00,2.945642471313476562e+00
1.762310137149752378e+09,1.582086467742919922e+01,-1.631464576721191406e+01,-1.227816462516784668e+00,2.917972564697265625e+00
1.762310137169627428e+09,1.584403705596923828e+01,-1.637194252014160156e+01,-1.242045521736145020e+00,2.884914875030517578e+00
1.762310137189992905e+09,1.586593055725097656e+01,-1.642692184448242188e+01,-1.256022572517395020e+00,2.863236188888549805e+00
1.762310137209469795e+09,1.588636016845703125e+01,-1.647919464111328125e+01,-1.268974661827087402e+00,2.834190368652343750e+00
1.762310137229988337e+09,1.590677642822265625e+01,-1.653561592102050781e+01,-1.282251119613647461e+00,2.815142631530761719e+00
1.762310137249911785e+09,1.592595958709716797e+01,-1.658977890014648438e+01,-1.295242309570312500e+00,2.787917375564575195e+00
1.762310137270378113e+09,1.594382858276367188e+01,-1.664210128784179688e+01,-1.308303356170654297e+00,2.770063638687133789e+00
1.762310137289663315e+09,1.596081066131591797e+01,-1.669683456420898438e+01,-1.322092175483703613e+00,2.743728637695312500e+00
1.762310137310220957e+09,1.597657203674316406e+01,-1.674861145019531250e+01,-1.334696412086486816e+00,2.711951494216918945e+00
1.762310137329493046e+09,1.599218273162841797e+01,-1.680101013183593750e+01,-1.346681475639343262e+00,2.691112995147705078e+00
1.762310137349910736e+09,1.600753211975097656e+01,-1.685277366638183594e+01,-1.358771085739135742e+00,2.663071870803833008e+00
1.762310137369526386e+09,1.602145385742187500e+01,-1.690575599670410156e+01,-1.372169256210327148e+00,2.644683361053466797e+00
1.762310137389967442e+09,1.603370857238769531e+01,-1.695548439025878906e+01,-1.386286735534667969e+00,2.618391036987304688e+00
1.762310137409934044e+09,1.604588317871093750e+01,-1.700554847717285156e+01,-1.400234341621398926e+00,2.601149320602416992e+00
1.762310137430148125e+09,1.605436706542968750e+01,-1.705340766906738281e+01,-1.417794585227966309e+00,2.575760841369628906e+00
1.762310137449744225e+09,1.606387901306152344e+01,-1.710484695434570312e+01,-1.434733271598815918e+00,2.559111595153808594e+00
1.762310137469976664e+09,1.607310104370117188e+01,-1.715531158447265625e+01,-1.450364589691162109e+00,2.534270763397216797e+00
1.762310137489596605e+09,1.608097076416015625e+01,-1.720854187011718750e+01,-1.467753529548645020e+00,2.517980813980102539e+00
1.762310137509933710e+09,1.608748054504394531e+01,-1.725893020629882812e+01,-1.484133243560791016e+00,2.493539810180664062e+00
1.762310137529716730e+09,1.609349060058593750e+01,-1.730746459960937500e+01,-1.499467968940734863e+00,2.477511882781982422e+00
1.762310137549966574e+09,1.609717941284179688e+01,-1.735168838500976562e+01,-1.514633417129516602e+00,2.453409433364868164e+00
1.762310137569564342e+09,1.610002899169921875e+01,-1.739959716796875000e+01,-1.531517863273620605e+00,2.437603712081909180e+00
1.762310137589905500e+09,1.610375213623046875e+01,-1.744822502136230469e+01,-1.546793818473815918e+00,2.413813591003417969e+00
1.762310137609693527e+09,1.610672378540039062e+01,-1.749582862854003906e+01,-1.561853289604187012e+00,2.398212671279907227e+00
1.762310137630513906e+09,1.610780715942382812e+01,-1.754172515869140625e+01,-1.578111410140991211e+00,2.374719381332397461e+00
1.762310137649639368e+09,1.610837173461914062e+01,-1.758915519714355469e+01,-1.594356298446655273e+00,2.359313011169433594e+00
1.762310137670083523e+09,1.610860252380371094e+01,-1.763336563110351562e+01,-1.608560085296630859e+00,2.336104393005371094e+00
1.762310137689544439e+09,1.611441421508789062e+01,-1.770641899108886719e+01,-1.628265380859375000e+00,2.320884943008422852e+00
1.762310137710080147e+09,1.611739349365234375e+01,-1.775368118286132812e+01,-1.636924266815185547e+00,2.297938823699951172e+00
1.762310137729553461e+09,1.611862564086914062e+01,-1.780837059020996094e+01,-1.653147459030151367e+00,2.282891511917114258e+00
1.762310137750171423e+09,1.611711311340332031e+01,-1.785461807250976562e+01,-1.670123815536499023e+00,2.273023843765258789e+00
1.762310137769525051e+09,1.611398696899414062e+01,-1.790028762817382812e+01,-1.688198089599609375e+00,2.253721237182617188e+00
1.762310137790307522e+09,1.611001586914062500e+01,-1.794411849975585938e+01,-1.705743312835693359e+00,2.241063117980957031e+00
1.762310137809755564e+09,1.610478401184082031e+01,-1.798797035217285156e+01,-1.723580121994018555e+00,2.220036983489990234e+00
1.762310137830033541e+09,1.609917449951171875e+01,-1.803122138977050781e+01,-1.741875290870666504e+00,2.206248283386230469e+00
1.762310137849674463e+09,1.609194946289062500e+01,-1.807469367980957031e+01,-1.760378479957580566e+00,2.184580802917480469e+00
1.762310137870024443e+09,1.608461189270019531e+01,-1.811649131774902344e+01,-1.777412176132202148e+00,2.170371770858764648e+00
1.762310137889652491e+09,1.607678413391113281e+01,-1.815589523315429688e+01,-1.795004844665527344e+00,2.161053657531738281e+00
1.762310137909750700e+09,1.606810569763183594e+01,-1.819671058654785156e+01,-1.813850402832031250e+00,2.142416477203369141e+00
1.762310137929635525e+09,1.605636978149414062e+01,-1.823806381225585938e+01,-1.834101200103759766e+00,2.130194664001464844e+00
1.762310137949696779e+09,1.604448127746582031e+01,-1.827760505676269531e+01,-1.854459881782531738e+00,2.109544515609741211e+00
