# time,x,y,theta,velocity
1.760745792779293537e+09,1.185685062408447266e+01,-3.610593795776367188e+00,-1.177344202995300293e+00,3.961374521255493164e+00
1.760745792799215317e+09,1.188806438446044922e+01,-3.683420896530151367e+00,-1.182101964950561523e+00,3.962067127227783203e+00
1.760745792819183588e+09,1.191886901855468750e+01,-3.756441354751586914e+00,-1.186125278472900391e+00,3.963143587112426758e+00
1.760745792838900089e+09,1.194928073883056641e+01,-3.829609155654907227e+00,-1.189774513244628906e+00,3.960650444030761719e+00
1.760745792859306097e+09,1.197932052612304688e+01,-3.902894973754882812e+00,-1.193238615989685059e+00,3.959778070449829102e+00
1.760745792878895044e+09,1.200902366638183594e+01,-3.976312875747680664e+00,-1.196604847908020020e+00,3.960098028182983398e+00
1.760745792899371624e+09,1.203841590881347656e+01,-4.049869537353515625e+00,-1.199924826622009277e+00,3.961048126220703125e+00
1.760745792918903351e+09,1.206750392913818359e+01,-4.123530387878417969e+00,-1.203243374824523926e+00,3.958712816238403320e+00
1.760745792939117908e+09,1.209629535675048828e+01,-4.197281360626220703e+00,-1.206571578979492188e+00,3.958460569381713867e+00
1.760745792958973646e+09,1.212481021881103516e+01,-4.271141052246093750e+00,-1.209904074668884277e+00,3.958836078643798828e+00
1.760745792979323149e+09,1.215305805206298828e+01,-4.345116138458251953e+00,-1.213241100311279297e+00,3.959670782089233398e+00
1.760745792998993874e+09,1.218104648590087891e+01,-4.419209003448486328e+00,-1.216583728790283203e+00,3.960592508316040039e+00
1.760745793019411802e+09,1.220878028869628906e+01,-4.493417263031005859e+00,-1.219932794570922852e+00,3.961559534072875977e+00
1.760745793038927078e+09,1.223624897003173828e+01,-4.567706584930419922e+00,-1.223300218582153320e+00,3.959071159362792969e+00
1.760745793059374809e+09,1.226345252990722656e+01,-4.642069339752197266e+00,-1.226678967475891113e+00,3.959167480468750000e+00
1.760745793078965187e+09,1.229040145874023438e+01,-4.716529846191406250e+00,-1.230057358741760254e+00,3.959549903869628906e+00
1.760745793099272966e+09,1.231709861755371094e+01,-4.791091442108154297e+00,-1.233435034751892090e+00,3.960141420364379883e+00
1.760745793118904829e+09,1.234354591369628906e+01,-4.865756511688232422e+00,-1.236811876296997070e+00,3.960925579071044922e+00
1.760745793139340878e+09,1.236974334716796875e+01,-4.940527915954589844e+00,-1.240188002586364746e+00,3.961884260177612305e+00
1.760745793158895969e+09,1.239566993713378906e+01,-5.015417098999023438e+00,-1.243877768516540527e+00,3.963093757629394531e+00
1.760745793179262638e+09,1.242093467712402344e+01,-5.090525627136230469e+00,-1.252100467681884766e+00,3.961450576782226562e+00
1.760745793198948145e+09,1.244538307189941406e+01,-5.165889263153076172e+00,-1.264478325843811035e+00,3.961604356765747070e+00
1.760745793219223738e+09,1.246898555755615234e+01,-5.241531372070312500e+00,-1.279158711433410645e+00,3.962316274642944336e+00
1.760745793238872766e+09,1.249167823791503906e+01,-5.317471981048583984e+00,-1.295080780982971191e+00,3.963595151901245117e+00
1.760745793259394169e+09,1.251337814331054688e+01,-5.393688678741455078e+00,-1.311696767807006836e+00,3.961180448532104492e+00
1.760745793278874159e+09,1.253416252136230469e+01,-5.470137596130371094e+00,-1.326918959617614746e+00,3.961205244064331055e+00
1.760745793299188137e+09,1.255411434173583984e+01,-5.546814918518066406e+00,-1.339896082878112793e+00,3.961881399154663086e+00
1.760745793318942785e+09,1.257320022583007812e+01,-5.623732089996337891e+00,-1.351567506790161133e+00,3.963151693344116211e+00
1.760745793339293242e+09,1.259140968322753906e+01,-5.700856208801269531e+00,-1.362527608871459961e+00,3.961434125900268555e+00
1.760745793358875990e+09,1.260874557495117188e+01,-5.778166770935058594e+00,-1.373095154762268066e+00,3.961648464202880859e+00
1.760745793379386425e+09,1.262524986267089844e+01,-5.855669498443603516e+00,-1.383112311363220215e+00,3.962423324584960938e+00
1.760745793398970127e+09,1.264118003845214844e+01,-5.933311462402343750e+00,-1.390230536460876465e+00,3.963479757308959961e+00
1.760745793419211626e+09,1.265656661987304688e+01,-6.011085987091064453e+00,-1.395507335662841797e+00,3.964754343032836914e+00
1.760745793439009190e+09,1.267144012451171875e+01,-6.088952541351318359e+00,-1.399790048599243164e+00,3.962763071060180664e+00
1.760745793459425926e+09,1.268599128723144531e+01,-6.166861057281494141e+00,-1.401804924011230469e+00,3.962834596633911133e+00
1.760745793478883028e+09,1.270040130615234375e+01,-6.244801521301269531e+00,-1.401174068450927734e+00,3.963301420211791992e+00
1.760745793499282122e+09,1.271472072601318359e+01,-6.322773456573486328e+00,-1.399082064628601074e+00,3.964288711547851562e+00
1.760745793518915176e+09,1.272900676727294922e+01,-6.400736331939697266e+00,-1.396209716796875000e+00,3.961901187896728516e+00
1.760745793539185762e+09,1.274331760406494141e+01,-6.478670120239257812e+00,-1.392940759658813477e+00,3.961811542510986328e+00
1.760745793558945417e+09,1.275771141052246094e+01,-6.556592941284179688e+00,-1.389486670494079590e+00,3.962254524230957031e+00
1.760745793579307318e+09,1.277223205566406250e+01,-6.634505748748779297e+00,-1.385961294174194336e+00,3.963192462921142578e+00
1.760745793598917723e+09,1.278691768646240234e+01,-6.712409496307373047e+00,-1.382422208786010742e+00,3.964369773864746094e+00
1.760745793619359016e+09,1.280178737640380859e+01,-6.790264606475830078e+00,-1.378886818885803223e+00,3.962017297744750977e+00
1.760745793638882399e+09,1.281686019897460938e+01,-6.868061065673828125e+00,-1.375368833541870117e+00,3.962278604507446289e+00
1.760745793659253359e+09,1.283215713500976562e+01,-6.945823669433593750e+00,-1.371878743171691895e+00,3.963004350662231445e+00
1.760745793678946018e+09,1.284754085540771484e+01,-7.023588657379150391e+00,-1.370150446891784668e+00,3.964189767837524414e+00
1.760745793699256182e+09,1.286287879943847656e+01,-7.101356506347656250e+00,-1.370807051658630371e+00,3.962523221969604492e+00
1.760745793718831062e+09,1.287816429138183594e+01,-7.179122924804687500e+00,-1.372808098793029785e+00,3.962893962860107422e+00
1.760745793739500761e+09,1.289337539672851562e+01,-7.256913185119628906e+00,-1.375548839569091797e+00,3.963453054428100586e+00
1.760745793758910894e+09,1.290847873687744141e+01,-7.334735870361328125e+00,-1.378683567047119141e+00,3.964014053344726562e+00
1.760745793779371738e+09,1.292344284057617188e+01,-7.412597179412841797e+00,-1.382017493247985840e+00,3.964624166488647461e+00
1.760745793799045324e+09,1.293824100494384766e+01,-7.490506172180175781e+00,-1.385442972183227539e+00,3.965565443038940430e+00
1.760745793819226742e+09,1.295284175872802734e+01,-7.568422794342041016e+00,-1.388914823532104492e+00,3.961895942687988281e+00
1.760745793838890076e+09,1.296722602844238281e+01,-7.646340847015380859e+00,-1.392398953437805176e+00,3.961582183837890625e+00
1.760745793859379768e+09,1.298138618469238281e+01,-7.724308967590332031e+00,-1.395868420600891113e+00,3.962790489196777344e+00
1.760745793878865480e+09,1.299531364440917969e+01,-7.802328586578369141e+00,-1.399323105812072754e+00,3.962478876113891602e+00
1.760745793899269819e+09,1.300899887084960938e+01,-7.880396842956542969e+00,-1.402763485908508301e+00,3.963388204574584961e+00
1.760745793918911695e+09,1.302243232727050781e+01,-7.958496093750000000e+00,-1.406198263168334961e+00,3.961368799209594727e+00
1.760745793939197779e+09,1.303560829162597656e+01,-8.036615371704101562e+00,-1.409628033638000488e+00,3.960951089859008789e+00
1.760745793958859205e+09,1.304852771759033203e+01,-8.114778518676757812e+00,-1.413045763969421387e+00,3.961363077163696289e+00
1.760745793979295492e+09,1.306134033203125000e+01,-8.192972183227539062e+00,-1.414715051651000977e+00,3.962292432785034180e+00
1.760745793998923540e+09,1.307418346405029297e+01,-8.271182060241699219e+00,-1.414012670516967773e+00,3.963463068008422852e+00
1.760745794019273281e+09,1.308706760406494141e+01,-8.349410057067871094e+00,-1.411977410316467285e+00,3.964626312255859375e+00
1.760745794038910627e+09,1.310001564025878906e+01,-8.427602767944335938e+00,-1.409206748008728027e+00,3.961338281631469727e+00
1.760745794059186935e+09,1.311306476593017578e+01,-8.505759239196777344e+00,-1.406048297882080078e+00,3.962434530258178711e+00
1.760745794078843594e+09,1.312627887725830078e+01,-8.583904266357421875e+00,-1.402383685111999512e+00,3.963048696517944336e+00
1.760745794099248886e+09,1.313993167877197266e+01,-8.661986351013183594e+00,-1.395860075950622559e+00,3.963588237762451172e+00
1.760745794118854284e+09,1.315406513214111328e+01,-8.739995002746582031e+00,-1.387527942657470703e+00,3.964299440383911133e+00
1.760745794139455557e+09,1.316872310638427734e+01,-8.817923545837402344e+00,-1.378206729888916016e+00,3.965250730514526367e+00
1.760745794158917904e+09,1.318392086029052734e+01,-8.895729064941406250e+00,-1.368652939796447754e+00,3.962520599365234375e+00
1.760745794179165125e+09,1.319946289062500000e+01,-8.973449707031250000e+00,-1.361607789993286133e+00,3.963336706161499023e+00
1.760745794198918819e+09,1.321522521972656250e+01,-9.051141738891601562e+00,-1.357970356941223145e+00,3.964151144027709961e+00
1.760745794219257593e+09,1.323108100891113281e+01,-9.128831863403320312e+00,-1.357647418975830078e+00,3.964982986450195312e+00
1.760745794238868713e+09,1.324701023101806641e+01,-9.206523895263671875e+00,-1.359183311462402344e+00,3.965870857238769531e+00
1.760745794259204149e+09,1.326296520233154297e+01,-9.284229278564453125e+00,-1.361735701560974121e+00,3.966809511184692383e+00
1.760745794278906345e+09,1.327888584136962891e+01,-9.361915588378906250e+00,-1.364825963973999023e+00,3.963378190994262695e+00
1.760745794299228668e+09,1.329471874237060547e+01,-9.439585685729980469e+00,-1.368183612823486328e+00,3.963421583175659180e+00
1.760745794318801165e+09,1.331043243408203125e+01,-9.517288208007812500e+00,-1.371658325195312500e+00,3.964084148406982422e+00
1.760745794339296103e+09,1.332599163055419922e+01,-9.595033645629882812e+00,-1.375172972679138184e+00,3.964683294296264648e+00
1.760745794358868122e+09,1.334137058258056641e+01,-9.672831535339355469e+00,-1.378690004348754883e+00,3.965568304061889648e+00
1.760745794379117489e+09,1.335654067993164062e+01,-9.750644683837890625e+00,-1.382203459739685059e+00,3.962401151657104492e+00
1.760745794398911715e+09,1.337148571014404297e+01,-9.828482627868652344e+00,-1.385698437690734863e+00,3.963642120361328125e+00
1.760745794419193029e+09,1.338620376586914062e+01,-9.906389236450195312e+00,-1.389165282249450684e+00,3.964757442474365234e+00
1.760745794438894987e+09,1.340082836151123047e+01,-9.984288215637207031e+00,-1.390872120857238770e+00,3.961410999298095703e+00
1.760745794459258080e+09,1.341548442840576172e+01,-1.006213569641113281e+01,-1.390198349952697754e+00,3.960207223892211914e+00
1.760745794478854656e+09,1.343018436431884766e+01,-1.013996696472167969e+01,-1.388185143470764160e+00,3.960493326187133789e+00
1.760745794499238491e+09,1.344496059417724609e+01,-1.021779441833496094e+01,-1.385436177253723145e+00,3.961260557174682617e+00
1.760745794518909693e+09,1.345984840393066406e+01,-1.029562091827392578e+01,-1.382297277450561523e+00,3.962505578994750977e+00
1.760745794539267540e+09,1.347487258911132812e+01,-1.037340450286865234e+01,-1.378954648971557617e+00,3.959747791290283203e+00
1.760745794558826208e+09,1.349005794525146484e+01,-1.045112037658691406e+01,-1.375515818595886230e+00,3.958903312683105469e+00
1.760745794579309464e+09,1.350543403625488281e+01,-1.052879428863525391e+01,-1.372045278549194336e+00,3.959197282791137695e+00
1.760745794598990679e+09,1.352101993560791016e+01,-1.060643482208251953e+01,-1.368572950363159180e+00,3.959717750549316406e+00
1.760745794619100094e+09,1.353683185577392578e+01,-1.068404293060302734e+01,-1.365111231803894043e+00,3.960566282272338867e+00
1.760745794638871193e+09,1.355288124084472656e+01,-1.076162528991699219e+01,-1.361665368080139160e+00,3.961917877197265625e+00
1.760745794659172058e+09,1.356916999816894531e+01,-1.083915042877197266e+01,-1.358224630355834961e+00,3.959963798522949219e+00
1.760745794678876162e+09,1.358570289611816406e+01,-1.091660594940185547e+01,-1.354790568351745605e+00,3.960105657577514648e+00
1.760745794699317694e+09,1.360248851776123047e+01,-1.099401855468750000e+01,-1.351370930671691895e+00,3.960993051528930664e+00
1.760745794719092607e+09,1.361952590942382812e+01,-1.107136249542236328e+01,-1.347953677177429199e+00,3.958960533142089844e+00
1.760745794739136457e+09,1.363681602478027344e+01,-1.114863395690917969e+01,-1.344540476799011230e+00,3.959218502044677734e+00
1.760745794759022951e+09,1.365436553955078125e+01,-1.122585773468017578e+01,-1.341138839721679688e+00,3.960149049758911133e+00
1.760745794779225826e+09,1.367217254638671875e+01,-1.130301475524902344e+01,-1.337737083435058594e+00,3.958415746688842773e+00
1.760745794798903942e+09,1.369023609161376953e+01,-1.138009738922119141e+01,-1.334336161613464355e+00,3.958651304244995117e+00
1.760745794819264174e+09,1.370856189727783203e+01,-1.145712852478027344e+01,-1.330943465232849121e+00,3.959508180618286133e+00
1.760745794838900089e+09,1.372715377807617188e+01,-1.153412246704101562e+01,-1.327559471130371094e+00,3.961117744445800781e+00
1.760745794859235764e+09,1.374600696563720703e+01,-1.161106109619140625e+01,-1.324174165725708008e+00,3.960425138473510742e+00
1.760745794878900051e+09,1.376511955261230469e+01,-1.168793296813964844e+01,-1.320785999298095703e+00,3.960806369781494141e+00
1.760745794899326563e+09,1.378449535369873047e+01,-1.176475238800048828e+01,-1.317400693893432617e+00,3.961701869964599609e+00
1.760745794918876410e+09,1.380415248870849609e+01,-1.184148406982421875e+01,-1.313690423965454102e+00,3.959385871887207031e+00
1.760745794939361572e+09,1.382432746887207031e+01,-1.191805458068847656e+01,-1.307194471359252930e+00,3.959000587463378906e+00
1.760745794958851814e+09,1.384504699707031250e+01,-1.199448108673095703e+01,-1.298930287361145020e+00,3.959513664245605469e+00
1.760745794978989840e+09,1.386633586883544922e+01,-1.207076740264892578e+01,-1.289693713188171387e+00,3.960631608963012695e+00
1.760745794999000072e+09,1.388822937011718750e+01,-1.214690780639648438e+01,-1.279937863349914551e+00,3.961973905563354492e+00
1.760745795019214153e+09,1.391075420379638672e+01,-1.222286033630371094e+01,-1.269890427589416504e+00,3.960329771041870117e+00
1.760745795039094210e+09,1.393393516540527344e+01,-1.229860305786132812e+01,-1.259700298309326172e+00,3.960719823837280273e+00
1.760745795059303045e+09,1.395780372619628906e+01,-1.237413978576660156e+01,-1.249462723731994629e+00,3.961105585098266602e+00
1.760745795078846931e+09,1.398237991333007812e+01,-1.244946002960205078e+01,-1.239216327667236328e+00,3.961794614791870117e+00
1.760745795099252939e+09,1.400765419006347656e+01,-1.252456855773925781e+01,-1.229297518730163574e+00,3.962920904159545898e+00
1.760745795119061708e+09,1.403339290618896484e+01,-1.259950637817382812e+01,-1.222144722938537598e+00,3.960653781890869141e+00
1.760745795139174223e+09,1.405959510803222656e+01,-1.267426109313964844e+01,-1.216614246368408203e+00,3.960696697235107422e+00
1.760745795158843517e+09,1.408629703521728516e+01,-1.274884510040283203e+01,-1.211575508117675781e+00,3.961338281631469727e+00
1.760745795179149866e+09,1.411341857910156250e+01,-1.282329940795898438e+01,-1.207385420799255371e+00,3.962630033493041992e+00
1.760745795198898315e+09,1.414092350006103516e+01,-1.289760017395019531e+01,-1.203639745712280273e+00,3.960341691970825195e+00
1.760745795219253778e+09,1.416878223419189453e+01,-1.297174739837646484e+01,-1.200124382972717285e+00,3.960505247116088867e+00
1.760745795238903761e+09,1.419698238372802734e+01,-1.304577636718750000e+01,-1.196733474731445312e+00,3.961274385452270508e+00
1.760745795259172916e+09,1.422550296783447266e+01,-1.311969852447509766e+01,-1.193399190902709961e+00,3.962055206298828125e+00
1.760745795278856516e+09,1.425433063507080078e+01,-1.319352054595947266e+01,-1.190084815025329590e+00,3.963079690933227539e+00
1.760745795299331427e+09,1.428343772888183594e+01,-1.326721477508544922e+01,-1.186758399009704590e+00,3.960476875305175781e+00
1.760745795318939447e+09,1.431281375885009766e+01,-1.334077739715576172e+01,-1.183418154716491699e+00,3.960597515106201172e+00
1.760745795339231253e+09,1.434245967864990234e+01,-1.341423702239990234e+01,-1.180073738098144531e+00,3.961028814315795898e+00
1.760745795358882904e+09,1.437237548828125000e+01,-1.348760128021240234e+01,-1.176725149154663086e+00,3.961896419525146484e+00
1.760745795379233122e+09,1.440269851684570312e+01,-1.356082153320312500e+01,-1.171638727188110352e+00,3.963241815567016602e+00
1.760745795398898840e+09,1.443354320526123047e+01,-1.363381385803222656e+01,-1.164163589477539062e+00,3.961074590682983398e+00
1.760745795419260740e+09,1.446491241455078125e+01,-1.370656204223632812e+01,-1.155343294143676758e+00,3.961235523223876953e+00
1.760745795438879490e+09,1.449684333801269531e+01,-1.377907657623291016e+01,-1.145802378654479980e+00,3.962082147598266602e+00
1.760745795459171295e+09,1.452937030792236328e+01,-1.385134792327880859e+01,-1.135886311531066895e+00,3.963279485702514648e+00
1.760745795478889942e+09,1.456250953674316406e+01,-1.392333030700683594e+01,-1.125757336616516113e+00,3.961386203765869141e+00
1.760745795499244213e+09,1.459614562988281250e+01,-1.399506855010986328e+01,-1.117268204689025879e+00,3.961808443069458008e+00
1.760745795518850088e+09,1.463018608093261719e+01,-1.406663513183593750e+01,-1.111126899719238281e+00,3.963192939758300781e+00
1.760745795539612293e+09,1.466464042663574219e+01,-1.413803195953369141e+01,-1.106320142745971680e+00,3.964311361312866211e+00
1.760745795558876514e+09,1.469946002960205078e+01,-1.420920181274414062e+01,-1.102219223976135254e+00,3.959101915359497070e+00
1.760745795579151154e+09,1.473454761505126953e+01,-1.428000450134277344e+01,-1.098425269126892090e+00,3.943678855895996094e+00
1.760745795598915577e+09,1.476982688903808594e+01,-1.435034465789794922e+01,-1.094751477241516113e+00,3.926409244537353516e+00
1.760745795619171619e+09,1.480523872375488281e+01,-1.442015075683593750e+01,-1.091108083724975586e+00,3.902332067489624023e+00
1.760745795638811588e+09,1.484071350097656250e+01,-1.448933315277099609e+01,-1.087445020675659180e+00,3.873864889144897461e+00
1.760745795659293890e+09,1.487619972229003906e+01,-1.455782032012939453e+01,-1.083749890327453613e+00,3.841358661651611328e+00
1.760745795678887129e+09,1.491165351867675781e+01,-1.462556076049804688e+01,-1.080026865005493164e+00,3.806222200393676758e+00
1.760745795699301720e+09,1.494708633422851562e+01,-1.469259738922119141e+01,-1.076321959495544434e+00,3.777760744094848633e+00
1.760745795718921661e+09,1.498250102996826172e+01,-1.475895309448242188e+01,-1.072644829750061035e+00,3.745456933975219727e+00
1.760745795739300728e+09,1.501782894134521484e+01,-1.482452106475830078e+01,-1.068953752517700195e+00,3.704566717147827148e+00
1.760745795758858204e+09,1.505298614501953125e+01,-1.488922214508056641e+01,-1.065579533576965332e+00,3.661306858062744141e+00
1.760745795779294968e+09,1.508776378631591797e+01,-1.495322704315185547e+01,-1.065154910087585449e+00,3.624964714050292969e+00
1.760745795798959732e+09,1.512216567993164062e+01,-1.501656723022460938e+01,-1.066544055938720703e+00,3.585098505020141602e+00
1.760745795819045305e+09,1.515600585937500000e+01,-1.507928562164306641e+01,-1.070770025253295898e+00,3.543617010116577148e+00
1.760745795838828564e+09,1.518913173675537109e+01,-1.514144325256347656e+01,-1.077914714813232422e+00,3.501918792724609375e+00
1.760745795859293222e+09,1.522155666351318359e+01,-1.520312309265136719e+01,-1.086537241935729980e+00,3.468235969543457031e+00
1.760745795878828049e+09,1.525322914123535156e+01,-1.526432704925537109e+01,-1.095924258232116699e+00,3.425384759902954102e+00
1.760745795899266481e+09,1.528407001495361328e+01,-1.532500076293945312e+01,-1.105702042579650879e+00,3.383068084716796875e+00
