# time,x,y,theta,velocity
1.760745490352695227e+09,2.834331035614013672e+00,-1.194415378570556641e+01,4.216310754418373108e-02,2.411897182464599609e+00
1.760745490372845173e+09,2.882703304290771484e+00,-1.194401645660400391e+01,2.281778678297996521e-02,2.425239801406860352e+00
1.760745490392519236e+09,2.931354522705078125e+00,-1.194481468200683594e+01,3.213036339730024338e-03,2.440437793731689453e+00
1.760745490412418604e+09,2.980303049087524414e+00,-1.194656276702880859e+01,-1.652934215962886810e-02,2.457383394241333008e+00
1.760745490432676554e+09,3.029531002044677734e+00,-1.194927501678466797e+01,-3.640083596110343933e-02,2.472755908966064453e+00
1.760745490452321529e+09,3.079021453857421875e+00,-1.195296764373779297e+01,-5.638427287340164185e-02,2.489924430847167969e+00
1.760745490472635746e+09,3.128759145736694336e+00,-1.195763015747070312e+01,-7.619360834360122681e-02,2.505499362945556641e+00
1.760745490492343664e+09,3.178751230239868164e+00,-1.196305561065673828e+01,-9.380505234003067017e-02,2.522915124893188477e+00
1.760745490512631178e+09,3.228985548019409180e+00,-1.196927356719970703e+01,-1.104006320238113403e-01,2.538714170455932617e+00
1.760745490532346964e+09,3.279469966888427734e+00,-1.197616863250732422e+01,-1.250660270452499390e-01,2.556395292282104492e+00
1.760745490552546501e+09,3.330211639404296875e+00,-1.198364830017089844e+01,-1.378719061613082886e-01,2.572435140609741211e+00
1.760745490572201014e+09,3.381202459335327148e+00,-1.199174880981445312e+01,-1.499213874340057373e-01,2.590394258499145508e+00
1.760745490592633963e+09,3.432435750961303711e+00,-1.200048351287841797e+01,-1.616920679807662964e-01,2.606685876846313477e+00
1.760745490612339973e+09,3.483910560607910156e+00,-1.200983905792236328e+01,-1.730866879224777222e-01,2.624930143356323242e+00
1.760745490632523060e+09,3.535663843154907227e+00,-1.201960182189941406e+01,-1.821438521146774292e-01,2.641480684280395508e+00
1.760745490652308702e+09,3.587688446044921875e+00,-1.202981185913085938e+01,-1.903418302536010742e-01,2.660015344619750977e+00
1.760745490672611475e+09,3.639940023422241211e+00,-1.204068183898925781e+01,-2.001282870769500732e-01,2.676829099655151367e+00
1.760745490692243576e+09,3.692463159561157227e+00,-1.205199241638183594e+01,-2.085780054330825806e-01,2.695656299591064453e+00
1.760745490712883472e+09,3.745256423950195312e+00,-1.206374549865722656e+01,-2.163037955760955811e-01,2.712735414505004883e+00
1.760745490732277632e+09,3.798350095748901367e+00,-1.207581520080566406e+01,-2.221646904945373535e-01,2.731853485107421875e+00
1.760745490752428055e+09,3.851768970489501953e+00,-1.208809661865234375e+01,-2.260831594467163086e-01,2.749196767807006836e+00
1.760745490772403955e+09,3.905512094497680664e+00,-1.210060882568359375e+01,-2.291440814733505249e-01,2.768602848052978516e+00
1.760745490792610407e+09,3.959579944610595703e+00,-1.211335659027099609e+01,-2.318365126848220825e-01,2.786207199096679688e+00
1.760745490812328577e+09,4.013975620269775391e+00,-1.212633800506591797e+01,-2.343771457672119141e-01,2.805895805358886719e+00
1.760745490832699537e+09,4.068702220916748047e+00,-1.213955020904541016e+01,-2.368634194135665894e-01,2.823756694793701172e+00
1.760745490852301836e+09,4.123762130737304688e+00,-1.215299320220947266e+01,-2.393360733985900879e-01,2.843721389770507812e+00
1.760745490872501373e+09,4.179194450378417969e+00,-1.216667556762695312e+01,-2.418079227209091187e-01,2.865636825561523438e+00
1.760745490892476082e+09,4.234998226165771484e+00,-1.218059730529785156e+01,-2.442909777164459229e-01,2.885517597198486328e+00
1.760745490912786245e+09,4.291172504425048828e+00,-1.219475936889648438e+01,-2.467881888151168823e-01,2.907397031784057617e+00
1.760745490932243824e+09,4.347715854644775391e+00,-1.220916175842285156e+01,-2.493017762899398804e-01,2.927245378494262695e+00
1.760745490952698469e+09,4.404627799987792969e+00,-1.222380924224853516e+01,-2.518306672573089600e-01,2.949135303497314453e+00
1.760745490972297192e+09,4.461945533752441406e+00,-1.223871040344238281e+01,-2.543694674968719482e-01,2.972916126251220703e+00
1.760745490992424488e+09,4.519627571105957031e+00,-1.225400924682617188e+01,-2.585073709487915039e-01,2.994489192962646484e+00
1.760745491012387514e+09,4.577639102935791016e+00,-1.226982307434082031e+01,-2.645916342735290527e-01,3.018026113510131836e+00
1.760745491032607555e+09,4.635974884033203125e+00,-1.228614616394042969e+01,-2.716293334960937500e-01,3.039377927780151367e+00
1.760745491052261353e+09,4.694627761840820312e+00,-1.230299091339111328e+01,-2.791334688663482666e-01,3.062765359878540039e+00
1.760745491072691679e+09,4.753628730773925781e+00,-1.232038307189941406e+01,-2.868568301200866699e-01,3.088054418563842773e+00
1.760745491092327833e+09,4.812965393066406250e+00,-1.233833789825439453e+01,-2.947061657905578613e-01,3.110995531082153320e+00
1.760745491112766743e+09,4.872625827789306641e+00,-1.235686779022216797e+01,-3.026306927204132080e-01,3.135936498641967773e+00
1.760745491132380486e+09,4.932600021362304688e+00,-1.237598705291748047e+01,-3.106147646903991699e-01,3.158561706542968750e+00
1.760745491152636290e+09,4.992877960205078125e+00,-1.239570426940917969e+01,-3.186441361904144287e-01,3.183275938034057617e+00
1.760745491172261000e+09,5.053450584411621094e+00,-1.241603183746337891e+01,-3.267203569412231445e-01,3.205695629119873047e+00
1.760745491192789316e+09,5.114309310913085938e+00,-1.243697834014892578e+01,-3.348366916179656982e-01,3.230286836624145508e+00
1.760745491212352276e+09,5.175445079803466797e+00,-1.245855426788330078e+01,-3.429981172084808350e-01,3.252594947814941406e+00
1.760745491232609272e+09,5.236851215362548828e+00,-1.248076629638671875e+01,-3.511989116668701172e-01,3.277153253555297852e+00
1.760745491252333164e+09,5.298561096191406250e+00,-1.250364112854003906e+01,-3.594177365303039551e-01,3.303827047348022461e+00
1.760745491272565603e+09,5.360614776611328125e+00,-1.252704715728759766e+01,-3.660701811313629150e-01,3.328024625778198242e+00
1.760745491292295933e+09,5.423050403594970703e+00,-1.255087661743164062e+01,-3.707152307033538818e-01,3.354461669921875000e+00
1.760745491312735558e+09,5.485904216766357422e+00,-1.257515048980712891e+01,-3.743366301059722900e-01,3.383035421371459961e+00
1.760745491332289219e+09,5.549181938171386719e+00,-1.259983730316162109e+01,-3.771689236164093018e-01,3.408956289291381836e+00
1.760745491352560043e+09,5.612969398498535156e+00,-1.262470817565917969e+01,-3.772645592689514160e-01,3.437173843383789062e+00
1.760745491372426748e+09,5.677318096160888672e+00,-1.264975547790527344e+01,-3.757684826850891113e-01,3.467594861984252930e+00
1.760745491392599583e+09,5.742229461669921875e+00,-1.267495536804199219e+01,-3.734671473503112793e-01,3.495191574096679688e+00
1.760745491412274599e+09,5.807761669158935547e+00,-1.270014286041259766e+01,-3.691735267639160156e-01,3.525070667266845703e+00
1.760745491432728767e+09,5.873944759368896484e+00,-1.272516155242919922e+01,-3.625796437263488770e-01,3.550027608871459961e+00
1.760745491452266216e+09,5.940680027008056641e+00,-1.274993896484375000e+01,-3.547297120094299316e-01,3.568402767181396484e+00
1.760745491472413778e+09,6.007902622222900391e+00,-1.277440547943115234e+01,-3.462013602256774902e-01,3.585072040557861328e+00
1.760745491492351294e+09,6.075554370880126953e+00,-1.279849433898925781e+01,-3.372933566570281982e-01,3.596064090728759766e+00
1.760745491512757063e+09,6.143543720245361328e+00,-1.282213306427001953e+01,-3.281432986259460449e-01,3.602038145065307617e+00
1.760745491532268763e+09,6.211788654327392578e+00,-1.284525775909423828e+01,-3.188255429267883301e-01,3.603588104248046875e+00
1.760745491552759886e+09,6.280249595642089844e+00,-1.286782836914062500e+01,-3.094096779823303223e-01,3.604994297027587891e+00
1.760745491572357893e+09,6.348823070526123047e+00,-1.288978672027587891e+01,-2.998726069927215576e-01,3.595838308334350586e+00
1.760745491592513084e+09,6.417308807373046875e+00,-1.291105270385742188e+01,-2.901464998722076416e-01,3.576394557952880859e+00
1.760745491612356663e+09,6.485680580139160156e+00,-1.293160438537597656e+01,-2.803412973880767822e-01,3.563643693923950195e+00
1.760745491632826567e+09,6.553908348083496094e+00,-1.295142173767089844e+01,-2.704850435256958008e-01,3.542270421981811523e+00
1.760745491652229309e+09,6.621856212615966797e+00,-1.297045993804931641e+01,-2.605328559875488281e-01,3.515653133392333984e+00
1.760745491672680378e+09,6.689564704895019531e+00,-1.298872661590576172e+01,-2.506107389926910400e-01,3.498198270797729492e+00
1.760745491692363739e+09,6.757047176361083984e+00,-1.300622653961181641e+01,-2.407352477312088013e-01,3.474541187286376953e+00
1.760745491712518692e+09,6.824202060699462891e+00,-1.302293682098388672e+01,-2.308442294597625732e-01,3.447187900543212891e+00
1.760745491732309341e+09,6.891083717346191406e+00,-1.303887462615966797e+01,-2.210387140512466431e-01,3.429250240325927734e+00
1.760745491752664328e+09,6.957716464996337891e+00,-1.305405426025390625e+01,-2.113174647092819214e-01,3.405997753143310547e+00
1.760745491772217274e+09,7.024010181427001953e+00,-1.306846523284912109e+01,-2.016099840402603149e-01,3.379588603973388672e+00
1.760745491792701006e+09,7.090020179748535156e+00,-1.308212852478027344e+01,-1.920010298490524292e-01,3.362270355224609375e+00
1.760745491812281609e+09,7.155771732330322266e+00,-1.309505939483642578e+01,-1.824820637702941895e-01,3.340060472488403320e+00
1.760745491832488537e+09,7.221180915832519531e+00,-1.310725593566894531e+01,-1.729840338230133057e-01,3.314929246902465820e+00
1.760745491852297783e+09,7.286301136016845703e+00,-1.311873722076416016e+01,-1.635820120573043823e-01,3.298449039459228516e+00
1.760745491872644663e+09,7.351157188415527344e+00,-1.312952041625976562e+01,-1.542653888463973999e-01,3.277340173721313477e+00
1.760745491892254114e+09,7.415668487548828125e+00,-1.313960647583007812e+01,-1.449700593948364258e-01,3.253440618515014648e+00
1.760745491912691355e+09,7.479887008666992188e+00,-1.314901256561279297e+01,-1.357644498348236084e-01,3.237767934799194336e+00
1.760745491932266712e+09,7.543838977813720703e+00,-1.315772914886474609e+01,-1.263157725334167480e-01,3.217657804489135742e+00
1.760745491952497005e+09,7.607495784759521484e+00,-1.316535568237304688e+01,-1.124085113406181335e-01,3.194842815399169922e+00
1.760745491972341299e+09,7.670908927917480469e+00,-1.317178916931152344e+01,-9.491176158189773560e-02,3.179881334304809570e+00
1.760745491992567301e+09,7.734084129333496094e+00,-1.317704772949218750e+01,-7.570589333772659302e-02,3.160630702972412109e+00
1.760745492012238026e+09,7.796934127807617188e+00,-1.318111038208007812e+01,-5.564260855317115784e-02,3.138738155364990234e+00
1.760745492032703638e+09,7.859492301940917969e+00,-1.318395805358886719e+01,-3.531692549586296082e-02,3.124381542205810547e+00
1.760745492052268982e+09,7.921762943267822266e+00,-1.318555068969726562e+01,-1.462018582969903946e-02,3.105854749679565430e+00
1.760745492072388172e+09,7.983656406402587891e+00,-1.318566036224365234e+01,8.473590947687625885e-03,3.084737300872802734e+00
1.760745492092349768e+09,8.045194625854492188e+00,-1.318453311920166016e+01,3.024449944496154785e-02,3.070888996124267578e+00
1.760745492112660646e+09,8.106383323669433594e+00,-1.318232345581054688e+01,4.937976971268653870e-02,3.052972555160522461e+00
1.760745492132249117e+09,8.167235374450683594e+00,-1.317914962768554688e+01,6.588649749755859375e-02,3.041223526000976562e+00
1.760745492152739763e+09,8.227745056152343750e+00,-1.317501068115234375e+01,8.110214769840240479e-02,3.024809122085571289e+00
1.760745492172243595e+09,8.287914276123046875e+00,-1.316994190216064453e+01,9.548749774694442749e-02,3.014045000076293945e+00
1.760745492192544937e+09,8.347737312316894531e+00,-1.316401863098144531e+01,1.090917363762855530e-01,2.998396873474121094e+00
1.760745492212371588e+09,8.407136917114257812e+00,-1.315737342834472656e+01,1.211781203746795654e-01,2.979663372039794922e+00
1.760745492232667685e+09,8.466160774230957031e+00,-1.315015029907226562e+01,1.312307417392730713e-01,2.967378377914428711e+00
1.760745492252263069e+09,8.524820327758789062e+00,-1.314235973358154297e+01,1.403039097785949707e-01,2.950969219207763672e+00
1.760745492272734404e+09,8.583133697509765625e+00,-1.313402271270751953e+01,1.488846391439437866e-01,2.940208435058593750e+00
1.760745492292260885e+09,8.641079902648925781e+00,-1.312501621246337891e+01,1.589361578226089478e-01,2.924921989440917969e+00
1.760745492312542439e+09,8.698565483093261719e+00,-1.311526107788085938e+01,1.709451228380203247e-01,2.906798124313354492e+00
1.760745492332288504e+09,8.755618095397949219e+00,-1.310476112365722656e+01,1.841051131486892700e-01,2.894912958145141602e+00
1.760745492352798462e+09,8.812168121337890625e+00,-1.309314632415771484e+01,2.019011974334716797e-01,2.879161596298217773e+00
1.760745492372215748e+09,8.868190765380859375e+00,-1.308031654357910156e+01,2.231494933366775513e-01,2.868832111358642578e+00
1.760745492392884016e+09,8.923670768737792969e+00,-1.306630229949951172e+01,2.459409534931182861e-01,2.854259967803955078e+00
1.760745492412339211e+09,8.978512763977050781e+00,-1.305112552642822266e+01,2.694543302059173584e-01,2.837084531784057617e+00
1.760745492432554245e+09,9.032721519470214844e+00,-1.303477287292480469e+01,2.931530475616455078e-01,2.825821161270141602e+00
1.760745492452300072e+09,9.086285591125488281e+00,-1.301724433898925781e+01,3.168648183345794678e-01,2.811018705368041992e+00
1.760745492472580671e+09,9.139193534851074219e+00,-1.299854183197021484e+01,3.404752910137176514e-01,2.801311492919921875e+00
1.760745492492205858e+09,9.191427230834960938e+00,-1.297867774963378906e+01,3.639941513538360596e-01,2.787766456604003906e+00
1.760745492512652636e+09,9.242901802062988281e+00,-1.295769405364990234e+01,3.874886035919189453e-01,2.771980285644531250e+00
1.760745492532329559e+09,9.293688774108886719e+00,-1.293573760986328125e+01,4.091737270355224609e-01,2.761627912521362305e+00
1.760745492552560806e+09,9.343834877014160156e+00,-1.291292572021484375e+01,4.287878870964050293e-01,2.748255252838134766e+00
1.760745492572430849e+09,9.393337249755859375e+00,-1.288925266265869141e+01,4.474044740200042725e-01,2.739485740661621094e+00
1.760745492592667103e+09,9.442194938659667969e+00,-1.286473751068115234e+01,4.655489623546600342e-01,2.727524042129516602e+00
1.760745492612281799e+09,9.490409851074218750e+00,-1.283939933776855469e+01,4.834302067756652832e-01,2.719679832458496094e+00
1.760745492632751942e+09,9.537981033325195312e+00,-1.281326389312744141e+01,5.011730790138244629e-01,2.708758354187011719e+00
1.760745492652277708e+09,9.584860801696777344e+00,-1.278637599945068359e+01,5.188654661178588867e-01,2.696323394775390625e+00
1.760745492672442436e+09,9.631069183349609375e+00,-1.275874328613281250e+01,5.364608168601989746e-01,2.688169002532958984e+00
1.760745492692326069e+09,9.676657676696777344e+00,-1.273035240173339844e+01,5.539221763610839844e-01,2.682821512222290039e+00
1.760745492712699890e+09,9.721616744995117188e+00,-1.270122432708740234e+01,5.713182687759399414e-01,2.674623727798461914e+00
1.760745492732256651e+09,9.765903472900390625e+00,-1.267140102386474609e+01,5.886965990066528320e-01,2.665235757827758789e+00
1.760745492752758265e+09,9.809443473815917969e+00,-1.264076328277587891e+01,6.076542735099792480e-01,2.659079313278198242e+00
1.760745492772302866e+09,9.852201461791992188e+00,-1.260921287536621094e+01,6.283841133117675781e-01,2.655042171478271484e+00
1.760745492792453051e+09,9.894174575805664062e+00,-1.257678985595703125e+01,6.498711705207824707e-01,2.649166107177734375e+00
1.760745492812420130e+09,9.935316085815429688e+00,-1.254351139068603516e+01,6.719890832901000977e-01,2.642917394638061523e+00
1.760745492832615376e+09,9.975472450256347656e+00,-1.250920677185058594e+01,6.966428160667419434e-01,2.638819694519042969e+00
1.760745492852319241e+09,1.001464557647705078e+01,-1.247389698028564453e+01,7.224998474121093750e-01,2.635351896286010742e+00
1.760745492872670650e+09,1.005283069610595703e+01,-1.243760299682617188e+01,7.488288283348083496e-01,2.633077859878540039e+00
1.760745492892275572e+09,1.009003543853759766e+01,-1.240035629272460938e+01,7.750148773193359375e-01,2.631586790084838867e+00
1.760745492912502289e+09,1.012641048431396484e+01,-1.236233425140380859e+01,7.988132238388061523e-01,2.630608797073364258e+00
1.760745492932398558e+09,1.016194057464599609e+01,-1.232353305816650391e+01,8.213945627212524414e-01,2.630558013916015625e+00
1.760745492952665091e+09,1.019660568237304688e+01,-1.228395938873291016e+01,8.434444069862365723e-01,2.630524635314941406e+00
1.760745492972235441e+09,1.023039340972900391e+01,-1.224362945556640625e+01,8.652642965316772461e-01,2.630882263183593750e+00
1.760745492992741346e+09,1.026340866088867188e+01,-1.220265483856201172e+01,8.853707313537597656e-01,2.631206750869750977e+00
1.760745493012316704e+09,1.029561424255371094e+01,-1.216102695465087891e+01,9.052108526229858398e-01,2.632033348083496094e+00
1.760745493032541752e+09,1.032689666748046875e+01,-1.211868190765380859e+01,9.260809421539306641e-01,2.632782936096191406e+00
1.760745493052334785e+09,1.035726165771484375e+01,-1.207564830780029297e+01,9.473974108695983887e-01,2.634145259857177734e+00
1.760745493072596073e+09,1.038670253753662109e+01,-1.203194522857666016e+01,9.689095020294189453e-01,2.635380983352661133e+00
1.760745493092295170e+09,1.041520881652832031e+01,-1.198758983612060547e+01,9.905043244361877441e-01,2.637316226959228516e+00
1.760745493112762690e+09,1.044289779663085938e+01,-1.194267463684082031e+01,1.010525703430175781e+00,2.639071702957153320e+00
1.760745493132310629e+09,1.046972656250000000e+01,-1.189719200134277344e+01,1.030336737632751465e+00,2.641593694686889648e+00
1.760745493152482271e+09,1.049557209014892578e+01,-1.185108852386474609e+01,1.051204442977905273e+00,2.643881559371948242e+00
1.760745493172607899e+09,1.052043437957763672e+01,-1.180439853668212891e+01,1.072548151016235352e+00,2.645956754684448242e+00
1.760745493192749023e+09,1.054430675506591797e+01,-1.175713825225830078e+01,1.094098806381225586e+00,2.648869514465332031e+00
1.760745493212223768e+09,1.056731319427490234e+01,-1.170938777923583984e+01,1.114134192466735840e+00,2.651511907577514648e+00
1.760745493232728004e+09,1.058954524993896484e+01,-1.166120433807373047e+01,1.132372736930847168e+00,2.655026674270629883e+00
1.760745493252288818e+09,1.061098384857177734e+01,-1.161257553100585938e+01,1.149826765060424805e+00,2.659408807754516602e+00
1.760745493272516489e+09,1.063161659240722656e+01,-1.156350994110107422e+01,1.166955709457397461e+00,2.663384437561035156e+00
1.760745493292475224e+09,1.065144062042236328e+01,-1.151401615142822266e+01,1.183955430984497070e+00,2.668249845504760742e+00
1.760745493312742949e+09,1.067045211791992188e+01,-1.146410465240478516e+01,1.200915694236755371e+00,2.672663688659667969e+00
1.760745493332284927e+09,1.068850612640380859e+01,-1.141373729705810547e+01,1.219476461410522461e+00,2.677982330322265625e+00
1.760745493352668524e+09,1.070549201965332031e+01,-1.136289215087890625e+01,1.239901304244995117e+00,2.682807445526123047e+00
1.760745493372304201e+09,1.072141742706298828e+01,-1.131159400939941406e+01,1.261156678199768066e+00,2.688545942306518555e+00
1.760745493392495155e+09,1.073627376556396484e+01,-1.125986194610595703e+01,1.282793164253234863e+00,2.693752050399780273e+00
1.760745493412369967e+09,1.075004768371582031e+01,-1.120771503448486328e+01,1.304607391357421875e+00,2.699875831604003906e+00
1.760745493432642698e+09,1.076272296905517578e+01,-1.115516948699951172e+01,1.326518535614013672e+00,2.705430984497070312e+00
1.760745493452222347e+09,1.077428627014160156e+01,-1.110224533081054688e+01,1.348485946655273438e+00,2.711904287338256836e+00
1.760745493472718239e+09,1.078486824035644531e+01,-1.104898929595947266e+01,1.368891835212707520e+00,2.717776536941528320e+00
