# time,x,y,theta,velocity
1.760747009785734415e+09,1.352132415771484375e+01,-1.050015163421630859e+01,-1.388079643249511719e+00,4.000000000000000000e+00
1.760747009805372477e+09,1.353574085235595703e+01,-1.057884216308593750e+01,-1.384588599205017090e+00,4.000000000000000000e+00
1.760747009825914860e+09,1.355039882659912109e+01,-1.065748786926269531e+01,-1.381110668182373047e+00,4.000000000000000000e+00
1.760747009845406055e+09,1.356530570983886719e+01,-1.073608684539794922e+01,-1.377645373344421387e+00,4.000000000000000000e+00
1.760747009865767717e+09,1.358046627044677734e+01,-1.081463623046875000e+01,-1.374191403388977051e+00,4.000000000000000000e+00
1.760747009885468721e+09,1.359588623046875000e+01,-1.089313697814941406e+01,-1.370746493339538574e+00,4.000000000000000000e+00
1.760747009905707121e+09,1.361156558990478516e+01,-1.097158527374267578e+01,-1.367309093475341797e+00,4.000000000000000000e+00
1.760747009925410032e+09,1.362750720977783203e+01,-1.104998016357421875e+01,-1.363877296447753906e+00,4.000000000000000000e+00
1.760747009946005583e+09,1.364371395111083984e+01,-1.112832164764404297e+01,-1.360449790954589844e+00,4.000000000000000000e+00
1.760747009965612650e+09,1.366018486022949219e+01,-1.120660781860351562e+01,-1.357025623321533203e+00,4.000000000000000000e+00
1.760747009986107111e+09,1.367692089080810547e+01,-1.128483772277832031e+01,-1.353603959083557129e+00,4.000000000000000000e+00
1.760747010005446196e+09,1.369392204284667969e+01,-1.136301040649414062e+01,-1.350183963775634766e+00,4.000000000000000000e+00
1.760747010025848389e+09,1.371119022369384766e+01,-1.144112396240234375e+01,-1.346765279769897461e+00,4.000000000000000000e+00
1.760747010045416117e+09,1.372872352600097656e+01,-1.151917934417724609e+01,-1.343347668647766113e+00,4.000000000000000000e+00
1.760747010065768003e+09,1.374667263031005859e+01,-1.159713935852050781e+01,-1.338188409805297852e+00,4.000000000000000000e+00
1.760747010085386038e+09,1.376517295837402344e+01,-1.167497062683105469e+01,-1.330651521682739258e+00,4.000000000000000000e+00
1.760747010105703831e+09,1.378423404693603516e+01,-1.175266647338867188e+01,-1.321771979331970215e+00,4.000000000000000000e+00
1.760747010125484943e+09,1.380388832092285156e+01,-1.183021450042724609e+01,-1.312152862548828125e+00,4.000000000000000000e+00
1.760747010145797491e+09,1.382417106628417969e+01,-1.190760040283203125e+01,-1.302140235900878906e+00,4.000000000000000000e+00
1.760747010165452003e+09,1.384511375427246094e+01,-1.198480987548828125e+01,-1.291929602622985840e+00,4.000000000000000000e+00
1.760747010185834885e+09,1.386674594879150391e+01,-1.206182956695556641e+01,-1.281628608703613281e+00,4.000000000000000000e+00
1.760747010205439329e+09,1.388908958435058594e+01,-1.213864517211914062e+01,-1.271294236183166504e+00,4.000000000000000000e+00
1.760747010225773573e+09,1.391201496124267578e+01,-1.221529006958007812e+01,-1.262697339057922363e+00,4.000000000000000000e+00
1.760747010245473862e+09,1.393540191650390625e+01,-1.229179573059082031e+01,-1.256487250328063965e+00,4.000000000000000000e+00
1.760747010265829802e+09,1.395925045013427734e+01,-1.236815834045410156e+01,-1.251633167266845703e+00,4.000000000000000000e+00
1.760747010285385847e+09,1.398353481292724609e+01,-1.244438266754150391e+01,-1.247532844543457031e+00,4.000000000000000000e+00
1.760747010306106329e+09,1.400822639465332031e+01,-1.252047729492187500e+01,-1.243838667869567871e+00,4.000000000000000000e+00
1.760747010325474739e+09,1.403329372406005859e+01,-1.259644794464111328e+01,-1.240353226661682129e+00,4.000000000000000000e+00
1.760747010345978975e+09,1.405871200561523438e+01,-1.267230224609375000e+01,-1.236966729164123535e+00,4.000000000000000000e+00
1.760747010365495205e+09,1.408445835113525391e+01,-1.274804687500000000e+01,-1.233620405197143555e+00,4.000000000000000000e+00
1.760747010385912657e+09,1.411051464080810547e+01,-1.282368373870849609e+01,-1.230283856391906738e+00,4.000000000000000000e+00
1.760747010405387640e+09,1.413686847686767578e+01,-1.289921855926513672e+01,-1.226942658424377441e+00,4.000000000000000000e+00
1.760747010425822020e+09,1.416350746154785156e+01,-1.297465324401855469e+01,-1.223591327667236328e+00,4.000000000000000000e+00
1.760747010445467710e+09,1.419042587280273438e+01,-1.304998874664306641e+01,-1.220228195190429688e+00,4.000000000000000000e+00
1.760747010465814352e+09,1.421776008605957031e+01,-1.312517356872558594e+01,-1.215112090110778809e+00,4.000000000000000000e+00
1.760747010485434055e+09,1.424563694000244141e+01,-1.320015907287597656e+01,-1.207608222961425781e+00,4.000000000000000000e+00
1.760747010505847931e+09,1.427406311035156250e+01,-1.327493858337402344e+01,-1.198753833770751953e+00,4.000000000000000000e+00
1.760747010525416136e+09,1.430306434631347656e+01,-1.334949588775634766e+01,-1.189153432846069336e+00,4.000000000000000000e+00
1.760747010545875311e+09,1.433267402648925781e+01,-1.342381477355957031e+01,-1.179154634475708008e+00,4.000000000000000000e+00
1.760747010565448284e+09,1.436292076110839844e+01,-1.349787616729736328e+01,-1.168954253196716309e+00,4.000000000000000000e+00
1.760747010585757256e+09,1.439382934570312500e+01,-1.357166385650634766e+01,-1.158660650253295898e+00,4.000000000000000000e+00
1.760747010605531216e+09,1.442542171478271484e+01,-1.364516162872314453e+01,-1.148331642150878906e+00,4.000000000000000000e+00
1.760747010625743866e+09,1.445771121978759766e+01,-1.371835517883300781e+01,-1.137996554374694824e+00,4.000000000000000000e+00
1.760747010645479202e+09,1.449056911468505859e+01,-1.379129505157470703e+01,-1.129410982131958008e+00,4.000000000000000000e+00
1.760747010665864706e+09,1.452387905120849609e+01,-1.386403083801269531e+01,-1.123216032981872559e+00,4.000000000000000000e+00
1.760747010685382128e+09,1.455763339996337891e+01,-1.393656063079833984e+01,-1.118377208709716797e+00,4.000000000000000000e+00
1.760747010705769777e+09,1.459181022644042969e+01,-1.400889301300048828e+01,-1.114290475845336914e+00,4.000000000000000000e+00
1.760747010725460768e+09,1.462635231018066406e+01,-1.408105182647705078e+01,-1.110923290252685547e+00,4.000000000000000000e+00
1.760747010745717525e+09,1.466100883483886719e+01,-1.415315532684326172e+01,-1.110544204711914062e+00,4.000000000000000000e+00
1.760747010765413523e+09,1.469568443298339844e+01,-1.422512722015380859e+01,-1.112043499946594238e+00,3.989569902420043945e+00
1.760747010785900354e+09,1.473024463653564453e+01,-1.429679870605468750e+01,-1.114573001861572266e+00,3.968361616134643555e+00
1.760747010805454493e+09,1.476458454132080078e+01,-1.436801433563232422e+01,-1.117334723472595215e+00,3.939447402954101562e+00
1.760747010825783014e+09,1.479883575439453125e+01,-1.443856430053710938e+01,-1.117459654808044434e+00,3.904837846755981445e+00
1.760747010845625639e+09,1.483300018310546875e+01,-1.450852584838867188e+01,-1.115890264511108398e+00,3.882141828536987305e+00
1.760747010865900755e+09,1.486707401275634766e+01,-1.457792663574218750e+01,-1.113374590873718262e+00,3.850964069366455078e+00
1.760747010885378599e+09,1.490099811553955078e+01,-1.464663410186767578e+01,-1.110311388969421387e+00,3.813574075698852539e+00
1.760747010905841827e+09,1.493473625183105469e+01,-1.471454334259033203e+01,-1.106932759284973145e+00,3.771455526351928711e+00
1.760747010925405741e+09,1.496834945678710938e+01,-1.478174400329589844e+01,-1.103421211242675781e+00,3.743834972381591797e+00
1.760747010945951939e+09,1.500186729431152344e+01,-1.484827136993408203e+01,-1.099853754043579102e+00,3.707463026046752930e+00
1.760747010965568304e+09,1.503523254394531250e+01,-1.491398620605468750e+01,-1.096232891082763672e+00,3.664772033691406250e+00
1.760747010985772610e+09,1.506840133666992188e+01,-1.497879409790039062e+01,-1.092573165893554688e+00,3.617997646331787109e+00
1.760747011005390882e+09,1.510134792327880859e+01,-1.504263401031494141e+01,-1.088893651962280273e+00,3.568585872650146484e+00
1.760747011025814295e+09,1.513411998748779297e+01,-1.510565185546875000e+01,-1.085604310035705566e+00,3.536182880401611328e+00
1.760747011045376301e+09,1.516652774810791016e+01,-1.516804027557373047e+01,-1.085260868072509766e+00,3.496210336685180664e+00
1.760747011066076756e+09,1.519850826263427734e+01,-1.522969055175781250e+01,-1.086686611175537109e+00,3.451254844665527344e+00
1.760747011085417509e+09,1.523010253906250000e+01,-1.529071044921875000e+01,-1.089031219482421875e+00,3.421774148941040039e+00
1.760747011105700970e+09,1.526131534576416016e+01,-1.535116767883300781e+01,-1.091845989227294922e+00,3.384122610092163086e+00
1.760747011125592232e+09,1.529206848144531250e+01,-1.541096878051757812e+01,-1.094904065132141113e+00,3.342510461807250977e+00
1.760747011145726204e+09,1.532238960266113281e+01,-1.547022438049316406e+01,-1.098054289817810059e+00,3.315222501754760742e+00
1.760747011165381193e+09,1.535229396820068359e+01,-1.552900218963623047e+01,-1.101231813430786133e+00,3.281369447708129883e+00
1.760747011185695171e+09,1.538172435760498047e+01,-1.558721828460693359e+01,-1.104424715042114258e+00,3.243864059448242188e+00
1.760747011205390453e+09,1.541071796417236328e+01,-1.564496803283691406e+01,-1.107586264610290527e+00,3.219268798828125000e+00
1.760747011225828648e+09,1.543929195404052734e+01,-1.570229721069335938e+01,-1.110712051391601562e+00,3.187971353530883789e+00
1.760747011245399475e+09,1.546746826171875000e+01,-1.575925254821777344e+01,-1.113792061805725098e+00,3.167447090148925781e+00
1.760747011265835524e+09,1.549525260925292969e+01,-1.581584739685058594e+01,-1.116838216781616211e+00,3.138820648193359375e+00
1.760747011285347700e+09,1.552265834808349609e+01,-1.587210559844970703e+01,-1.119845867156982422e+00,3.120048284530639648e+00
1.760747011305934429e+09,1.554968929290771484e+01,-1.592802715301513672e+01,-1.122827649116516113e+00,3.092586517333984375e+00
1.760747011325356007e+09,1.557614135742187500e+01,-1.598355102539062500e+01,-1.127597212791442871e+00,3.059451341629028320e+00
1.760747011345782757e+09,1.560193920135498047e+01,-1.603878402709960938e+01,-1.134459495544433594e+00,3.037722110748291016e+00
1.760747011365439177e+09,1.562710952758789062e+01,-1.609373855590820312e+01,-1.142294049263000488e+00,3.008382558822631836e+00
1.760747011385803938e+09,1.565157222747802734e+01,-1.614831352233886719e+01,-1.150936484336853027e+00,2.974099636077880859e+00
1.760747011405384779e+09,1.567506313323974609e+01,-1.620252990722656250e+01,-1.162505984306335449e+00,2.936634063720703125e+00
1.760747011425887108e+09,1.569762706756591797e+01,-1.625647544860839844e+01,-1.175466418266296387e+00,2.912065267562866211e+00
1.760747011445431232e+09,1.571928596496582031e+01,-1.631018829345703125e+01,-1.188984036445617676e+00,2.881040811538696289e+00
1.760747011465793848e+09,1.574005222320556641e+01,-1.636370658874511719e+01,-1.202629685401916504e+00,2.860695838928222656e+00
1.760747011485358000e+09,1.575992870330810547e+01,-1.641703987121582031e+01,-1.216276407241821289e+00,2.832524299621582031e+00
1.760747011505865335e+09,1.577887153625488281e+01,-1.647005844116210938e+01,-1.229948043823242188e+00,2.799315690994262695e+00
1.760747011525373459e+09,1.579690837860107422e+01,-1.652281570434570312e+01,-1.243476271629333496e+00,2.777538299560546875e+00
1.760747011545808554e+09,1.581405925750732422e+01,-1.657533264160156250e+01,-1.256866574287414551e+00,2.748630523681640625e+00
1.760747011565432310e+09,1.583034420013427734e+01,-1.662762832641601562e+01,-1.270081281661987305e+00,2.729673147201538086e+00
1.760747011585778475e+09,1.584578037261962891e+01,-1.667969894409179688e+01,-1.283170819282531738e+00,2.702734470367431641e+00
1.760747011605375767e+09,1.586038875579833984e+01,-1.673154830932617188e+01,-1.296109676361083984e+00,2.685068607330322266e+00
1.760747011625869036e+09,1.587420940399169922e+01,-1.678315734863281250e+01,-1.308626770973205566e+00,2.659108161926269531e+00
1.760747011645425320e+09,1.588742923736572266e+01,-1.683432960510253906e+01,-1.318880438804626465e+00,2.627850532531738281e+00
1.760747011665706635e+09,1.589982891082763672e+01,-1.688518142700195312e+01,-1.330286383628845215e+00,2.607352495193481445e+00
1.760747011685445070e+09,1.591143989562988281e+01,-1.693572235107421875e+01,-1.342293381690979004e+00,2.579828739166259766e+00
1.760747011705773830e+09,1.592229652404785156e+01,-1.698596954345703125e+01,-1.354454159736633301e+00,2.561779260635375977e+00
1.760747011725524664e+09,1.593241882324218750e+01,-1.703591728210449219e+01,-1.366633653640747070e+00,2.536020278930664062e+00
1.760747011745713472e+09,1.594182777404785156e+01,-1.708557701110839844e+01,-1.378731846809387207e+00,2.519128084182739258e+00
1.760747011765422583e+09,1.595053768157958984e+01,-1.713493347167968750e+01,-1.390757560729980469e+00,2.494292020797729492e+00
1.760747011786052942e+09,1.595856571197509766e+01,-1.718399620056152344e+01,-1.402670383453369141e+00,2.478005170822143555e+00
1.760747011805593014e+09,1.596595191955566406e+01,-1.723274421691894531e+01,-1.414186239242553711e+00,2.453732967376708984e+00
1.760747011826127052e+09,1.597291469573974609e+01,-1.728115272521972656e+01,-1.423460364341735840e+00,2.437815904617309570e+00
1.760747011845391035e+09,1.597921562194824219e+01,-1.732924652099609375e+01,-1.433961033821105957e+00,2.413952827453613281e+00
1.760747011865704298e+09,1.598487377166748047e+01,-1.737702751159667969e+01,-1.445036888122558594e+00,2.398303747177124023e+00
1.760747011885324717e+09,1.598991584777832031e+01,-1.742447853088378906e+01,-1.456307649612426758e+00,2.374779224395751953e+00
1.760747011905918598e+09,1.599421119689941406e+01,-1.747161483764648438e+01,-1.469209909439086914e+00,2.359352350234985352e+00
1.760747011925571203e+09,1.599782371520996094e+01,-1.751841926574707031e+01,-1.482173442840576172e+00,2.336130142211914062e+00
1.760747011945763111e+09,1.600074958801269531e+01,-1.756488800048828125e+01,-1.495610952377319336e+00,2.320901632308959961e+00
1.760747011965397596e+09,1.600288581848144531e+01,-1.761115074157714844e+01,-1.510188341140747070e+00,2.310915231704711914e+00
1.760747011985744238e+09,1.600442504882812500e+01,-1.765713882446289062e+01,-1.523578405380249023e+00,2.291401147842407227e+00
1.760747012005330563e+09,1.600533103942871094e+01,-1.770282173156738281e+01,-1.536996364593505859e+00,2.278604269027709961e+00
1.760747012025814295e+09,1.600564002990722656e+01,-1.774816894531250000e+01,-1.549852728843688965e+00,2.257380723953247070e+00
1.760747012045422554e+09,1.600533103942871094e+01,-1.779316902160644531e+01,-1.562970519065856934e+00,2.243463039398193359e+00
1.760747012065698862e+09,1.600429916381835938e+01,-1.783779525756835938e+01,-1.577226161956787109e+00,2.221610546112060547e+00
1.760747012085647106e+09,1.600255393981933594e+01,-1.788204193115234375e+01,-1.592113375663757324e+00,2.207280397415161133e+00
1.760747012105798960e+09,1.599989891052246094e+01,-1.792587471008300781e+01,-1.609402418136596680e+00,2.185257434844970703e+00
1.760747012125379324e+09,1.599623584747314453e+01,-1.796927261352539062e+01,-1.629184484481811523e+00,2.170815467834472656e+00
1.760747012145810366e+09,1.599166774749755859e+01,-1.801221466064453125e+01,-1.649238228797912598e+00,2.148818016052246094e+00
1.760747012165456772e+09,1.598620605468750000e+01,-1.805468750000000000e+01,-1.669813156127929688e+00,2.134392499923706055e+00
1.760747012185623646e+09,1.597976493835449219e+01,-1.809665107727050781e+01,-1.691541433334350586e+00,2.112297534942626953e+00
1.760747012205363750e+09,1.597237396240234375e+01,-1.813808822631835938e+01,-1.713822484016418457e+00,2.097808122634887695e+00
1.760747012226050854e+09,1.596385765075683594e+01,-1.817906761169433594e+01,-1.737935900688171387e+00,2.088306188583374023e+00
1.760747012245382547e+09,1.595465564727783203e+01,-1.821960830688476562e+01,-1.759077429771423340e+00,2.069890022277832031e+00
1.760747012265686035e+09,1.594472980499267578e+01,-1.825966644287109375e+01,-1.779522061347961426e+00,2.057812929153442383e+00
1.760747012285353899e+09,1.593407821655273438e+01,-1.829933357238769531e+01,-1.799023747444152832e+00,2.049893140792846680e+00
1.760747012305774450e+09,1.592284297943115234e+01,-1.833856964111328125e+01,-1.817204356193542480e+00,2.032331228256225586e+00
1.760747012325430870e+09,1.591091251373291016e+01,-1.837715721130371094e+01,-1.836526513099670410e+00,2.008054018020629883e+00
1.760747012345742464e+09,1.589820575714111328e+01,-1.841507720947265625e+01,-1.857033133506774902e+00,1.992133498191833496e+00
1.760747012365550756e+09,1.588474082946777344e+01,-1.845245933532714844e+01,-1.877722620964050293e+00,1.981693148612976074e+00
1.760747012385717630e+09,1.587056350708007812e+01,-1.848927879333496094e+01,-1.898421883583068848e+00,1.964761257171630859e+00
1.760747012405617237e+09,1.585567855834960938e+01,-1.852551841735839844e+01,-1.919304013252258301e+00,1.953657746315002441e+00
1.760747012425844193e+09,1.583990192413330078e+01,-1.856118011474609375e+01,-1.941871762275695801e+00,1.946376323699951172e+00
1.760747012445451736e+09,1.582351207733154297e+01,-1.859632110595703125e+01,-1.963029503822326660e+00,1.931977987289428711e+00
1.760747012465666771e+09,1.580650234222412109e+01,-1.863090324401855469e+01,-1.983811378479003906e+00,1.922535896301269531e+00
1.760747012485412359e+09,1.578867435455322266e+01,-1.866489601135253906e+01,-2.006103038787841797e+00,1.916343927383422852e+00
1.760747012505856276e+09,1.577030754089355469e+01,-1.869833946228027344e+01,-2.026963472366333008e+00,1.900045871734619141e+00
1.760747012525649548e+09,1.575140285491943359e+01,-1.873117446899414062e+01,-2.047446727752685547e+00,1.889358043670654297e+00
1.760747012545866489e+09,1.573161220550537109e+01,-1.876327514648437500e+01,-2.071220159530639648e+00,1.882349133491516113e+00
1.760747012565526485e+09,1.571101474761962891e+01,-1.879472923278808594e+01,-2.095458269119262695e+00,1.877752900123596191e+00
1.760747012585855961e+09,1.568974113464355469e+01,-1.882563781738281250e+01,-2.118864297866821289e+00,1.874738812446594238e+00
1.760747012605573654e+09,1.566767215728759766e+01,-1.885592269897460938e+01,-2.143468379974365234e+00,1.872762322425842285e+00
1.760747012626266003e+09,1.564474868774414062e+01,-1.888552474975585938e+01,-2.169333934783935547e+00,1.871466040611267090e+00
1.760747012645580292e+09,1.562113475799560547e+01,-1.891455268859863281e+01,-2.194089412689208984e+00,1.870616078376770020e+00
1.760747012665911198e+09,1.559690475463867188e+01,-1.894311904907226562e+01,-2.217260599136352539e+00,1.875269055366516113e+00
1.760747012685521364e+09,1.557215213775634766e+01,-1.897135162353515625e+01,-2.238249301910400391e+00,1.879490137100219727e+00
1.760747012706136227e+09,1.554664421081542969e+01,-1.899910545349121094e+01,-2.260393619537353516e+00,1.889832973480224609e+00
1.760747012725497007e+09,1.552037811279296875e+01,-1.902641487121582031e+01,-2.282780885696411133e+00,1.899215579032897949e+00
1.760747012745827198e+09,1.549349880218505859e+01,-1.905343818664550781e+01,-2.303335666656494141e+00,1.912182927131652832e+00
1.760747012765555620e+09,1.546596908569335938e+01,-1.908015441894531250e+01,-2.323254108428955078e+00,1.923946380615234375e+00
1.760747012785796165e+09,1.543778800964355469e+01,-1.910651206970214844e+01,-2.343048810958862305e+00,1.934617757797241211e+00
1.760747012805495501e+09,1.540902137756347656e+01,-1.913263511657714844e+01,-2.361097574234008789e+00,1.950968503952026367e+00
1.760747012825905085e+09,1.537981700897216797e+01,-1.915873718261718750e+01,-2.376025438308715820e+00,1.965801239013671875e+00
1.760747012845515728e+09,1.534997749328613281e+01,-1.918458557128906250e+01,-2.391823530197143555e+00,1.981863617897033691e+00
1.760747012865846634e+09,1.531949234008789062e+01,-1.921014785766601562e+01,-2.408105134963989258e+00,1.996434926986694336e+00
1.760747012885493040e+09,1.528838253021240234e+01,-1.923539352416992188e+01,-2.424631595611572266e+00,2.009917497634887695e+00
1.760747012905891895e+09,1.525656414031982422e+01,-1.926016044616699219e+01,-2.443086147308349609e+00,2.022148609161376953e+00
