# x,y,theta,velocity
2.359358310699462891e+00,-2.064977586269378662e-01,-3.060084819793701172e+00,2.000000000000000000e+00
2.260117053985595703e+00,-2.136351317167282104e-01,-3.079001426696777344e+00,2.000000000000000000e+00
2.160766363143920898e+00,-2.190451025962829590e-01,-3.094879388809204102e+00,2.000000000000000000e+00
2.061347723007202148e+00,-2.230275869369506836e-01,-3.107728719711303711e+00,2.000000000000000000e+00
1.961890101432800293e+00,-2.258826196193695068e-01,-3.117557764053344727e+00,2.000000000000000000e+00
1.851087331771850586e+00,-2.425402998924255371e-01,3.021526813507080078e+00,2.000000000000000000e+00
1.751404881477355957e+00,-2.289421558380126953e-01,2.990257740020751953e+00,2.000000000000000000e+00
1.652200579643249512e+00,-2.122099101543426514e-01,2.959241151809692383e+00,2.000000000000000000e+00
1.553553104400634766e+00,-1.924583017826080322e-01,2.929350852966308594e+00,2.000000000000000000e+00
1.455525755882263184e+00,-1.698289811611175537e-01,2.900844335556030273e+00,2.000000000000000000e+00
1.358163952827453613e+00,-1.444883048534393311e-01,2.873962402343750000e+00,2.000000000000000000e+00
1.261491060256958008e+00,-1.166230142116546631e-01,2.848925590515136719e+00,2.000000000000000000e+00
1.165506243705749512e+00,-8.643673360347747803e-02,2.825939893722534180e+00,2.000000000000000000e+00
1.070196151733398438e+00,-5.415150523185729980e-02,2.805189847946166992e+00,2.000000000000000000e+00
9.755348563194274902e-01,-2.000475861132144928e-02,2.786832094192504883e+00,2.000000000000000000e+00
8.814784884452819824e-01,1.575567759573459625e-02,2.770999908447265625e+00,2.000000000000000000e+00
7.879614233970642090e-01,5.287603288888931274e-02,2.757811546325683594e+00,2.000000000000000000e+00
6.948970556259155273e-01,9.109793603420257568e-02,2.747381687164306641e+00,2.000000000000000000e+00
6.021834611892700195e-01,1.301570385694503784e-01,2.739820480346679688e+00,2.000000000000000000e+00
5.097088813781738281e-01,1.697813570499420166e-01,2.735230207443237305e+00,2.000000000000000000e+00
4.173562228679656982e-01,2.096906304359436035e-01,2.733701229095458984e+00,2.000000000000000000e+00
3.250038325786590576e-01,2.495973408222198486e-01,2.735309362411499023e+00,2.000000000000000000e+00
2.325259894132614136e-01,2.892082035541534424e-01,2.740118980407714844e+00,2.000000000000000000e+00
1.397940665483474731e-01,3.282247185707092285e-01,2.748194456100463867e+00,2.000000000000000000e+00
4.668069258332252502e-02,3.663401007652282715e-01,2.759619951248168945e+00,2.000000000000000000e+00
-4.693379253149032593e-02,4.032336473464965820e-01,2.774504184722900391e+00,2.000000000000000000e+00
-1.411551684141159058e-01,4.385662674903869629e-01,2.792945146560668945e+00,2.000000000000000000e+00
-2.360714972019195557e-01,4.719845354557037354e-01,2.814960479736328125e+00,2.000000000000000000e+00
-3.317516744136810303e-01,5.031338930130004883e-01,2.840441942214965820e+00,2.000000000000000000e+00
-4.282442629337310791e-01,5.316729545593261719e-01,2.869179487228393555e+00,2.000000000000000000e+00
-5.255737304687500000e-01,5.572796463966369629e-01,2.900973796844482422e+00,2.000000000000000000e+00
-6.237309575080871582e-01,5.796400308609008789e-01,2.935755968093872070e+00,2.000000000000000000e+00
-7.226609587669372559e-01,5.984302163124084473e-01,2.973561763763427734e+00,2.000000000000000000e+00
-8.222557902336120605e-01,6.133158802986145020e-01,3.014115571975708008e+00,2.000000000000000000e+00
-9.223644137382507324e-01,6.240266561508178711e-01,3.056220054626464844e+00,2.000000000000000000e+00
-1.022815227508544922e+00,6.304798722267150879e-01,3.097488641738891602e+00,2.000000000000000000e+00
-1.123438954353332520e+00,6.329005956649780273e-01,3.134824991226196289e+00,2.000000000000000000e+00
-1.224089264869689941e+00,6.318420767784118652e-01,-3.117484807968139648e+00,2.000000000000000000e+00
-1.324661612510681152e+00,6.280486583709716797e-01,-3.094067096710205078e+00,2.000000000000000000e+00
-1.425108909606933594e+00,6.222812533378601074e-01,-3.077607631683349609e+00,2.000000000000000000e+00
-1.525450825691223145e+00,6.151835918426513672e-01,-3.067036628723144531e+00,2.000000000000000000e+00
-1.625749349594116211e+00,6.072945594787597656e-01,-3.061804294586181641e+00,2.000000000000000000e+00
-1.726068854331970215e+00,5.991424918174743652e-01,-3.062247276306152344e+00,2.000000000000000000e+00
-1.826437473297119141e+00,5.913373827934265137e-01,-3.069328308105468750e+00,2.000000000000000000e+00
-1.926844716072082520e+00,5.846082568168640137e-01,-3.084113836288452148e+00,2.000000000000000000e+00
-2.027276992797851562e+00,5.797806382179260254e-01,-3.107444286346435547e+00,1.925030469894409180e+00
-2.127758264541625977e+00,5.777447223663330078e-01,-3.140062808990478516e+00,1.831287860870361328e+00
-2.228345394134521484e+00,5.794730186462402344e-01,3.099471569061279297e+00,1.741757750511169434e+00
-2.328947305679321289e+00,5.862240791320800781e-01,3.040395736694335938e+00,1.660823822021484375e+00
-2.429044961929321289e+00,5.998528599739074707e-01,2.958350896835327148e+00,1.595043182373046875e+00
-2.527423620223999023e+00,6.230058670043945312e-01,2.845951795578002930e+00,1.549678802490234375e+00
-2.622022390365600586e+00,6.586272716522216797e-01,2.701596498489379883e+00,1.525436878204345703e+00
-2.709878683090209961e+00,7.089012861251831055e-01,2.530954360961914062e+00,1.518247723579406738e+00
-2.787293195724487305e+00,7.742952704429626465e-01,2.344269037246704102e+00,1.518247723579406738e+00
-2.850895881652832031e+00,8.533224463462829590e-01,2.157076597213745117e+00,1.518247723579406738e+00
-2.899223804473876953e+00,9.428195953369140625e-01,1.988963246345520020e+00,1.526836276054382324e+00
-2.933274745941162109e+00,1.038703560829162598e+00,1.852361798286437988e+00,1.556291818618774414e+00
-2.955496311187744141e+00,1.137365221977233887e+00,1.746282219886779785e+00,1.607173562049865723e+00
-2.968455314636230469e+00,1.237117052078247070e+00,1.663210034370422363e+00,1.673120141029357910e+00
-2.974053144454956055e+00,1.337597250938415527e+00,1.597062587738037109e+00,1.748353600502014160e+00
-2.973737478256225586e+00,1.438176751136779785e+00,1.543722510337829590e+00,1.828893423080444336e+00
-2.968607425689697266e+00,1.538696408271789551e+00,1.500017523765563965e+00,1.912353277206420898e+00
-2.959509134292602539e+00,1.638869285583496094e+00,1.457352161407470703e+00,1.993559360504150391e+00
-2.938783645629882812e+00,1.839201211929321289e+00,1.347017288208007812e+00,1.716922640800476074e+00
-2.913240432739257812e+00,1.935343384742736816e+00,1.274801254272460938e+00,1.702943444252014160e+00
-2.880705833435058594e+00,2.029348373413085938e+00,1.199936509132385254e+00,1.690613627433776855e+00
-2.841096162796020508e+00,2.120595932006835938e+00,1.122017264366149902e+00,1.680515408515930176e+00
-2.794353961944580078e+00,2.208401441574096680e+00,1.040580272674560547e+00,1.673411726951599121e+00
-2.740462541580200195e+00,2.292006254196166992e+00,9.551848769187927246e-01,1.670025348663330078e+00
-2.679484844207763672e+00,2.370588779449462891e+00,8.660013675689697266e-01,1.670025348663330078e+00
-2.611719846725463867e+00,2.443400382995605469e+00,7.772997021675109863e-01,1.670025348663330078e+00
-2.537934541702270508e+00,2.510108947753906250e+00,6.938647627830505371e-01,1.674356818199157715e+00
-2.459022045135498047e+00,2.570672273635864258e+00,6.162366867065429688e-01,1.684267640113830566e+00
-2.375793218612670898e+00,2.625158071517944336e+00,5.438885688781738281e-01,1.698585748672485352e+00
-2.288961887359619141e+00,2.673702955245971680e+00,4.764650166034698486e-01,1.716577529907226562e+00
-2.199153900146484375e+00,2.716497182846069336e+00,4.136286377906799316e-01,1.737691640853881836e+00
-2.106914520263671875e+00,2.753767728805541992e+00,3.550677001476287842e-01,1.761420488357543945e+00
-2.012714624404907227e+00,2.785768032073974609e+00,3.005399107933044434e-01,1.787410974502563477e+00
-1.916961431503295898e+00,2.812772512435913086e+00,2.498511672019958496e-01,1.815407752990722656e+00
-1.820002555847167969e+00,2.835071086883544922e+00,2.028495222330093384e-01,1.845236301422119141e+00
-1.722133636474609375e+00,2.852965116500854492e+00,1.594177633523941040e-01,1.876786947250366211e+00
-1.623602867126464844e+00,2.866765499114990234e+00,1.194681525230407715e-01,1.910001993179321289e+00
-1.524615406990051270e+00,2.876789331436157227e+00,8.293846994638442993e-02,1.944868087768554688e+00
-1.425337910652160645e+00,2.883359432220458984e+00,4.978810623288154602e-02,1.981409430503845215e+00
-1.325901985168457031e+00,2.886802434921264648e+00,1.999466679990291595e-02,2.000000000000000000e+00
-1.226407766342163086e+00,2.887448549270629883e+00,-6.449051201343536377e-03,2.000000000000000000e+00
-1.126927495002746582e+00,2.885630369186401367e+00,-2.953802421689033508e-02,2.000000000000000000e+00
-1.027508378028869629e+00,2.881683588027954102e+00,-4.925780743360519409e-02,2.000000000000000000e+00
-9.281760454177856445e-01,2.875945091247558594e+00,-6.558723002672195435e-02,2.000000000000000000e+00
-8.289378881454467773e-01,2.868754625320434570e+00,-7.850106805562973022e-02,2.000000000000000000e+00
-7.297862768173217773e-01,2.860453605651855469e+00,-8.797253668308258057e-02,2.000000000000000000e+00
-6.307017207145690918e-01,2.851385593414306641e+00,-9.397577494382858276e-02,2.000000000000000000e+00
-5.316566228866577148e-01,2.841895580291748047e+00,-9.648779034614562988e-02,2.000000000000000000e+00
-4.326187968254089355e-01,2.832330465316772461e+00,-9.549098461866378784e-02,2.000000000000000000e+00
-3.335551023483276367e-01,2.823038339614868164e+00,-9.097339957952499390e-02,2.000000000000000000e+00
-2.344352453947067261e-01,2.814368486404418945e+00,-8.293133229017257690e-02,2.000000000000000000e+00
-1.352356225252151489e-01,2.806669473648071289e+00,-7.140507549047470093e-02,2.000000000000000000e+00
-3.594313561916351318e-02,2.800282955169677734e+00,-5.650838837027549744e-02,2.000000000000000000e+00
6.343878060579299927e-02,2.795480728149414062e+00,-4.010539129376411438e-02,2.000000000000000000e+00
1.628851890563964844e-01,2.792269468307495117e+00,-2.476391196250915527e-02,2.000000000000000000e+00
2.623678147792816162e-01,2.790493488311767578e+00,-1.123703643679618835e-02,2.000000000000000000e+00
3.618651032447814941e-01,2.789974212646484375e+00,5.062941345386207104e-04,2.000000000000000000e+00
4.613623321056365967e-01,2.790535211563110352e+00,1.047400012612342834e-02,2.000000000000000000e+00
5.608505010604858398e-01,2.791999816894531250e+00,1.867049559950828552e-02,2.000000000000000000e+00
6.603254079818725586e-01,2.794191837310791016e+00,2.509791404008865356e-02,2.000000000000000000e+00
7.597866654396057129e-01,2.796935081481933594e+00,2.975522913038730621e-02,2.000000000000000000e+00
8.592369556427001953e-01,2.800053358078002930e+00,3.263922035694122314e-02,2.000000000000000000e+00
9.586807489395141602e-01,2.803369998931884766e+00,3.374435007572174072e-02,2.000000000000000000e+00
1.058123826980590820e+00,2.806707859039306641e+00,3.306328877806663513e-02,2.000000000000000000e+00
1.157572031021118164e+00,2.809888839721679688e+00,3.058718144893646240e-02,2.000000000000000000e+00
1.257030367851257324e+00,2.812733888626098633e+00,2.630570717155933380e-02,2.000000000000000000e+00
1.356501936912536621e+00,2.815062761306762695e+00,2.020744234323501587e-02,2.000000000000000000e+00
1.455987215042114258e+00,2.816694021224975586e+00,1.228008978068828583e-02,2.000000000000000000e+00
1.555482864379882812e+00,2.817445278167724609e+00,2.510544843971729279e-03,2.000000000000000000e+00
1.654980659484863281e+00,2.817132234573364258e+00,-9.114919230341911316e-03,2.000000000000000000e+00
1.754466533660888672e+00,2.815569400787353516e+00,-2.261059172451496124e-02,2.000000000000000000e+00
1.853919148445129395e+00,2.812570810317993164e+00,-3.799131140112876892e-02,2.000000000000000000e+00
1.953309297561645508e+00,2.807948589324951172e+00,-5.527247861027717590e-02,2.000000000000000000e+00
2.052598237991333008e+00,2.801514387130737305e+00,-7.447017729282379150e-02,2.000000000000000000e+00
2.151737213134765625e+00,2.793079853057861328e+00,-9.560135751962661743e-02,2.000000000000000000e+00
2.250664949417114258e+00,2.782456159591674805e+00,-1.186840534210205078e-01,2.000000000000000000e+00
2.349308013916015625e+00,2.769454717636108398e+00,-1.437377631664276123e-01,2.000000000000000000e+00
2.447578668594360352e+00,2.753888845443725586e+00,-1.707837432622909546e-01,2.000000000000000000e+00
2.545373678207397461e+00,2.735572814941406250e+00,-1.998456269502639771e-01,2.000000000000000000e+00
2.642572879791259766e+00,2.714323759078979492e+00,-2.309499830007553101e-01,2.000000000000000000e+00
2.739038705825805664e+00,2.689962625503540039e+00,-2.641269564628601074e-01,2.000000000000000000e+00
2.834614038467407227e+00,2.662314891815185547e+00,-2.994110584259033203e-01,2.000000000000000000e+00
2.929120540618896484e+00,2.631211757659912109e+00,-3.368420004844665527e-01,2.000000000000000000e+00
3.022358417510986328e+00,2.596492052078247070e+00,-3.764656484127044678e-01,1.991998791694641113e+00
3.114104032516479492e+00,2.558003902435302734e+00,-4.183350205421447754e-01,1.966001510620117188e+00
3.204108953475952148e+00,2.515606164932250977e+00,-4.625117480754852295e-01,1.941059589385986328e+00
3.292098045349121094e+00,2.469171524047851562e+00,-5.090671181678771973e-01,1.917242169380187988e+00
3.377768039703369141e+00,2.418587684631347656e+00,-5.580836534500122070e-01,1.894641995429992676e+00
3.460786342620849609e+00,2.363762378692626953e+00,-6.096568703651428223e-01,1.873380899429321289e+00
3.540788888931274414e+00,2.304624795913696289e+00,-6.638979315757751465e-01,1.853616476058959961e+00
3.617378473281860352e+00,2.241131782531738281e+00,-7.209345102310180664e-01,1.835545897483825684e+00
3.690124273300170898e+00,2.173270702362060547e+00,-7.809125781059265137e-01,1.819416761398315430e+00
3.758559465408325195e+00,2.101066827774047852e+00,-8.440009355545043945e-01,1.805539846420288086e+00
3.822180271148681641e+00,2.024589300155639648e+00,-9.103876352310180664e-01,1.794285893440246582e+00
3.880444288253784180e+00,1.943958520889282227e+00,-9.803717732429504395e-01,1.786318898200988770e+00
3.932760000228881836e+00,1.859349966049194336e+00,-1.054343700408935547e+00,1.782377839088439941e+00
3.978563547134399414e+00,1.771047115325927734e+00,-1.130164504051208496e+00,1.778511881828308105e+00
4.017581462860107422e+00,1.679542660713195801e+00,-1.205093860626220703e+00,1.773871421813964844e+00
4.049694061279296875e+00,1.585391998291015625e+00,-1.278944253921508789e+00,1.767402768135070801e+00
4.074807643890380859e+00,1.489137291908264160e+00,-1.352134466171264648e+00,1.759420752525329590e+00
4.092832088470458984e+00,1.391306757926940918e+00,-1.425051689147949219e+00,1.750192403793334961e+00
4.103678703308105469e+00,1.292422890663146973e+00,-1.498078227043151855e+00,1.740005016326904297e+00
4.107260704040527344e+00,1.193010807037353516e+00,-1.571596384048461914e+00,1.729152083396911621e+00
4.103490352630615234e+00,1.093606114387512207e+00,-1.645997762680053711e+00,1.718096256256103516e+00
4.092281341552734375e+00,9.947643280029296875e-01,-1.721691012382507324e+00,1.707547545433044434e+00
4.073549270629882812e+00,8.970697522163391113e-01,-1.799111008644104004e+00,1.698025226593017578e+00
4.047216415405273438e+00,8.011457920074462891e-01,-1.878734469413757324e+00,1.690169215202331543e+00
4.013213634490966797e+00,7.076668143272399902e-01,-1.961094379425048828e+00,1.684755921363830566e+00
3.971491813659667969e+00,6.173712015151977539e-01,-2.046781063079833984e+00,1.682735443115234375e+00
3.922062397003173828e+00,5.310558080673217773e-01,-2.135301351547241211e+00,1.682735443115234375e+00
3.865203142166137695e+00,4.494419395923614502e-01,-2.222509145736694336e+00,1.682735443115234375e+00
3.801638603210449219e+00,3.729301691055297852e-01,-2.304619312286376953e+00,1.687354803085327148e+00
3.732202529907226562e+00,3.016992807388305664e-01,-2.381395578384399414e+00,1.696985483169555664e+00
3.657669782638549805e+00,2.358154803514480591e-01,-2.453235626220703125e+00,1.710761666297912598e+00
3.578738451004028320e+00,1.752664744853973389e-01,-2.520484924316406250e+00,1.727977752685546875e+00
3.496034860610961914e+00,1.199771240353584290e-01,-2.583428144454956055e+00,1.748104929924011230e+00
3.410118341445922852e+00,6.982208788394927979e-02,-2.642305135726928711e+00,1.770735383033752441e+00
3.321485519409179688e+00,2.463587000966072083e-02,-2.697314023971557617e+00,1.795563578605651855e+00
3.230576038360595703e+00,-1.577900908887386322e-02,-2.748620748519897461e+00,1.822361946105957031e+00
3.137776374816894531e+00,-5.164543166756629944e-02,-2.796362876892089844e+00,1.850966691970825195e+00
3.043424367904663086e+00,-8.320631086826324463e-02,-2.840653657913208008e+00,1.881265282630920410e+00
2.947812318801879883e+00,-1.107202172279357910e-01,-2.881587028503417969e+00,1.913187026977539062e+00
2.851192474365234375e+00,-1.344578117132186890e-01,-2.919239282608032227e+00,1.946695566177368164e+00
2.753778934478759766e+00,-1.546989232301712036e-01,-2.953672885894775391e+00,1.981783509254455566e+00
2.655752658843994141e+00,-1.717302501201629639e-01,-2.984937906265258789e+00,2.000000000000000000e+00
2.557262897491455078e+00,-1.858433932065963745e-01,-3.013075113296508789e+00,2.000000000000000000e+00
2.458432197570800781e+00,-1.973334401845932007e-01,-3.038115739822387695e+00,2.000000000000000000e+00
