# time,x,y,theta,velocity
1.761333459006799221e+09,-1.480017604880204507e+00,-2.386683880666328472e-01,-2.984717653519018299e+00,1.999998124883886064e+00
1.761333459027338266e+09,-1.519577583379428720e+00,-2.445628969688787846e-01,-3.029348374597498950e+00,1.999998298967786248e+00
1.761333459046749115e+09,-1.559357904776085935e+00,-2.487176092791906767e-01,-3.073958932972502112e+00,1.999998456889911624e+00
1.761333459067423582e+09,-1.599282424432380667e+00,-2.511190960150961327e-01,-3.118552193329324762e+00,1.999998600150705075e+00
1.761333459086687088e+09,-1.639273983741088569e+00,-2.517583630353019131e-01,3.120054441718924654e+00,1.999998730111310241e+00
1.761333459107818842e+09,-1.679254743438354236e+00,-2.506307042382612260e-01,3.075487916230766228e+00,1.999998848006502961e+00
1.761333459127979040e+09,-1.719146477081415103e+00,-2.477355708336677897e-01,3.030931405881672980e+00,1.999998954956424324e+00
1.761333459147646427e+09,-1.758870832669177320e+00,-2.430764543603376737e-01,2.986383090245836147e+00,1.999999051977222164e+00
1.761333459166899681e+09,-1.798349568910899920e+00,-2.366607809992862799e-01,2.941841439174170514e+00,1.999999139990706443e+00
1.761333459187504292e+09,-1.837504771354669053e+00,-2.284998147855650530e-01,2.897305181825293730e+00,1.999999219833107134e+00
1.761333459206928015e+09,-1.876259052486002998e+00,-2.186085674842512816e-01,2.852773272413324346e+00,1.999999292263019424e+00
1.761333459227499247e+09,-1.914535738990424507e+00,-2.070057131152319152e-01,2.808244856558651747e+00,1.999999357968611058e+00
1.761333459246828318e+09,-1.952259048624446214e+00,-1.937135053548826591e-01,2.763719240266949928e+00,1.999999417574161553e+00
1.761333459267471313e+09,-1.989376733677350684e+00,-1.788121644857472714e-01,2.719884488617767548e+00,1.999999471645992566e+00
1.761333459286848545e+09,-2.025840178514206169e+00,-1.623747956799550529e-01,2.677081765839131045e+00,1.999999520697848920e+00
1.761333459308112621e+09,-2.061587846282471492e+00,-1.444336235208729668e-01,2.635077138992006685e+00,1.999999565195780038e+00
1.761333459327239752e+09,-2.096537270082972082e+00,-1.251386232485195704e-01,2.594503619433981889e+00,1.992829763867165704e+00
1.761333459347612619e+09,-2.130599893624976371e+00,-1.045441139919011803e-01,2.554927784305673022e+00,1.988127979944300128e+00
1.761333459366941690e+09,-2.163759352575073347e+00,-8.266437632936693425e-02,2.516108455737518845e+00,1.985044662702427631e+00
1.761333459387403250e+09,-2.195962447344704138e+00,-5.961949751302898087e-02,2.478400149323010115e+00,1.975597592407305703e+00
1.761333459407027721e+09,-2.227185440988743270e+00,-3.551533679270743593e-02,2.442132601485502708e+00,1.969402430059569165e+00
1.761333459427651644e+09,-2.257532708180796543e+00,-1.047586152367527626e-02,2.408683424221779390e+00,1.965339791028013483e+00
1.761333459447040796e+09,-2.286989012937903798e+00,1.540121087512126563e-02,2.377702909257542352e+00,1.956134679513307884e+00
1.761333459467523813e+09,-2.315526304880760833e+00,4.206825134296941771e-02,2.348466090180605814e+00,1.950098187936436078e+00
1.761333459486827374e+09,-2.343234532282292726e+00,6.945545077501677489e-02,2.321510998289379124e+00,1.946139601394661689e+00
1.761333459508273363e+09,-2.370091476087678117e+00,9.750736798177216114e-02,2.296092691154805188e+00,1.937976847603827713e+00
1.761333459526911259e+09,-2.396084981082869714e+00,1.261810693122162319e-01,2.271676035073533662e+00,1.932623909247379812e+00
1.761333459547626972e+09,-2.421245198514637487e+00,1.554732659764879454e-01,2.247969637119750175e+00,1.929113580529624228e+00
1.761333459566854954e+09,-2.445609525909580917e+00,1.852962155201328120e-01,2.225393235702250117e+00,1.922335526673241590e+00
1.761333459587524652e+09,-2.469216926575078741e+00,2.155812523970844496e-01,2.204126955554967626e+00,1.917890641356396086e+00
1.761333459606962204e+09,-2.492098992128220392e+00,2.463274229285656591e-01,2.183869375827678816e+00,1.914975792065060967e+00
1.761333459627966404e+09,-2.514380110290530101e+00,2.774116486002464188e-01,2.165994352773867870e+00,1.909830441597067718e+00
1.761333459647047043e+09,-2.536107695047374655e+00,3.087828292531354379e-01,2.150314453051813235e+00,1.906456244042755044e+00
1.761333459667918682e+09,-2.557298895117261939e+00,3.404523524763760078e-01,2.136059836354518460e+00,1.904243526132410214e+00
1.761333459686851263e+09,-2.577961655059000101e+00,3.724034253646265058e-01,2.122708061402549973e+00,1.900987403601567927e+00
1.761333459707275867e+09,-2.598116364691116065e+00,4.046145840431966123e-01,2.110050432412436727e+00,1.898852116462537376e+00
1.761333459726834536e+09,-2.617865075001189812e+00,4.370353700271710218e-01,2.098887184540324746e+00,1.897451846318241042e+00
1.761333459747716665e+09,-2.637223552077458066e+00,4.696580902563227689e-01,2.088762415974452225e+00,1.896049496426293279e+00
1.761333459766863585e+09,-2.656202360508275184e+00,5.024766283540785805e-01,2.079293963818359625e+00,1.895129868967457387e+00
1.761333459787238121e+09,-2.674815289338848157e+00,5.354867751043892454e-01,2.070237733090151799e+00,1.894526799314226961e+00
1.761333459807076454e+09,-2.693072573287911275e+00,5.686781567979199981e-01,2.061434173571673689e+00,1.893670952456365519e+00
1.761333459827197075e+09,-2.710983914611275303e+00,6.020415977496398341e-01,2.052783317472957059e+00,1.893109708593070817e+00
1.761333459846927166e+09,-2.728556475994012409e+00,6.355661123780108612e-01,2.044220789400262639e+00,1.892048951650272093e+00
1.761333459867851973e+09,-2.745796912562959768e+00,6.692431241887558668e-01,2.035708504320003609e+00,1.891353332662921050e+00
1.761333459886707783e+09,-2.762713828018289686e+00,7.030710762227966315e-01,2.027225696476739447e+00,1.890897162398047282e+00
1.761333459907925129e+09,-2.779307153062743563e+00,7.370340444284968484e-01,2.018752629370393237e+00,1.889183181663481204e+00
1.761333459926767349e+09,-2.795569117566963691e+00,7.711257779281540659e-01,2.010159820047327628e+00,1.888059194164731114e+00
1.761333459947377205e+09,-2.811412026260021957e+00,8.053697878575964975e-01,2.000436241467208109e+00,1.885238204208018464e+00
1.761333459966764688e+09,-2.826781439475856583e+00,8.397781550123120109e-01,1.989214971859122327e+00,1.883388266585325654e+00
1.761333459987334967e+09,-2.841642884824588933e+00,8.743760004126578389e-01,1.976478787429707396e+00,1.882175121816869190e+00
1.761333460006698370e+09,-2.855995300709656348e+00,9.091358846191260890e-01,1.962768529031111209e+00,1.878681662536789698e+00
1.761333460027396441e+09,-2.869824967522927039e+00,9.440454460149522165e-01,1.948322173624221998e+00,1.876390735644198005e+00
1.761333460046716213e+09,-2.883046692381639353e+00,9.791496261060783635e-01,1.932384654024790871e+00,1.874888400678644595e+00
1.761333460067432642e+09,-2.895590708072700359e+00,1.014438901876911547e+00,1.914712139462364737e+00,1.870644845549505941e+00
1.761333460086908579e+09,-2.907402700426416242e+00,1.049906666786306619e+00,1.895377463516426664e+00,1.867862023771397872e+00
1.761333460107436419e+09,-2.918477169302463370e+00,1.085522362774163252e+00,1.874988746728883493e+00,1.862271485187308562e+00
1.761333460126781940e+09,-2.928805173561517705e+00,1.121266339681570079e+00,1.853955388297525264e+00,1.858605343933167342e+00
1.761333460147375584e+09,-2.938374442226233008e+00,1.157112764706032637e+00,1.832524251634266799e+00,1.851982071200753310e+00
1.761333460166734695e+09,-2.947174226084717130e+00,1.193044127217464112e+00,1.810872676880925569e+00,1.847638687636450561e+00
1.761333460187666655e+09,-2.955204663909794860e+00,1.229082335601480613e+00,1.789139920707461195e+00,1.844790400762451155e+00
1.761333460206809521e+09,-2.962453348995911728e+00,1.265188728990777056e+00,1.767350377722679999e+00,1.838304969426048041e+00
1.761333460227500439e+09,-2.968911952423478606e+00,1.301336886362875811e+00,1.745546841324913334e+00,1.834051978946569683e+00
1.761333460247632265e+09,-2.974574282017486304e+00,1.337494963327212183e+00,1.723740978390925882e+00,1.826303885921270798e+00
1.761333460268078804e+09,-2.979436949948087054e+00,1.373641203396531507e+00,1.701964966153581171e+00,1.821222872159588668e+00
1.761333460287057877e+09,-2.983504865490367752e+00,1.409801752557231280e+00,1.680271489181423439e+00,1.817890865075767248e+00
1.761333460307384491e+09,-2.986775911314129228e+00,1.445932899641459768e+00,1.658619646429692285e+00,1.810465232895672960e+00
1.761333460326796293e+09,-2.989240282870255339e+00,1.482006036990260345e+00,1.636892698851308836e+00,1.805595681230114158e+00
1.761333460347699642e+09,-2.990809548720858135e+00,1.518049302131743383e+00,1.614136995934659868e+00,1.802402345922298643e+00
1.761333460366800785e+09,-2.991487851326449565e+00,1.554010586836290564e+00,1.590632047523583559e+00,1.794850085424240627e+00
1.761333460387513876e+09,-2.991284026926045225e+00,1.589854013522792986e+00,1.566681195595003295e+00,1.789897493941775775e+00
1.761333460406664848e+09,-2.990204451595377844e+00,1.625600617134844272e+00,1.542520885041744449e+00,1.786649703111667264e+00
1.761333460427339315e+09,-2.988255810822989300e+00,1.661198022596109158e+00,1.518214931055387407e+00,1.778913186395584711e+00
1.761333460446685076e+09,-2.985443737657874408e+00,1.696610546299879729e+00,1.493843488779587059e+00,1.773839764100118233e+00
1.761333460467288971e+09,-2.981770552128927942e+00,1.731860597898812859e+00,1.469501904659626268e+00,1.770512735317949504e+00
1.761333460486712933e+09,-2.977187572555624495e+00,1.766889290358436782e+00,1.444474898141513641e+00,1.762736607694256552e+00
1.761333460507592678e+09,-2.971646874345541534e+00,1.801650284182592099e+00,1.418365372431671378e+00,1.757637209514656629e+00
1.761333460526851416e+09,-2.965019137420364714e+00,1.836076442680572463e+00,1.389865670842933776e+00,1.748830772081095830e+00
1.761333460547747612e+09,-2.957276595098546235e+00,1.870121317676106898e+00,1.359293840488909000e+00,1.743055721414407566e+00
1.761333460566797256e+09,-2.948451751195609205e+00,1.903747411780200016e+00,1.327478633498781146e+00,1.734060088918480735e+00
1.761333460587305546e+09,-2.938564853462319881e+00,1.936923010379803634e+00,1.294967448840343982e+00,1.728160968663006614e+00
1.761333460606856108e+09,-2.927618934344845769e+00,1.969662566910687751e+00,1.262141461805744047e+00,1.724292466942388025e+00
1.761333460627295971e+09,-2.915636300553529736e+00,2.001915473361681297e+00,1.229130245032611590e+00,1.716943621809777776e+00
1.761333460646900177e+09,-2.902635717686267380e+00,2.033641657073783637e+00,1.196052684375777275e+00,1.712124425250141302e+00
1.761333460667341709e+09,-2.888619863286336464e+00,2.064846079106553933e+00,1.163025554992772603e+00,1.708964111614281300e+00
1.761333460686753511e+09,-2.873616216455184169e+00,2.095480420931728371e+00,1.130029631038369953e+00,1.702647435281750665e+00
1.761333460707474232e+09,-2.857700776351912442e+00,2.125534546703016225e+00,1.097770542045507725e+00,1.698505110290442044e+00
1.761333460726779222e+09,-2.840919168491673474e+00,2.155035699930152759e+00,1.066588318039890293e+00,1.695788672811248787e+00
1.761333460747333527e+09,-2.823299671176528136e+00,2.183949431764141025e+00,1.036185391247537613e+00,1.690531249293387717e+00
1.761333460767192602e+09,-2.804941228606264492e+00,2.212297269025650603e+00,1.007309424668586306e+00,1.687083556918241856e+00
1.761333460788154840e+09,-2.785843709988010009e+00,2.240084057525463912e+00,9.794958857311836242e-01,1.684822642865330344e+00
1.761333460807090759e+09,-2.766026045836804670e+00,2.267284291705769839e+00,9.523291910423221651e-01,1.680894732202278918e+00
1.761333460827697754e+09,-2.745554534473848562e+00,2.293915205647158562e+00,9.262488435453343216e-01,1.678318902502188958e+00
1.761333460846767902e+09,-2.724471654046384472e+00,2.320010557688716002e+00,9.014088127478522283e-01,1.676629735101749841e+00
1.761333460867517233e+09,-2.702787263909412374e+00,2.345555906020886372e+00,8.773254400791459240e-01,1.674356347048546745e+00
1.761333460886794806e+09,-2.680515104279654448e+00,2.370540607955698764e+00,8.537082698007241177e-01,1.672865513633633672e+00
1.761333460908479214e+09,-2.657664086451103636e+00,2.394963596056470578e+00,8.303866119844610649e-01,1.671887860800502557e+00
1.761333460927031994e+09,-2.634246419124395278e+00,2.418821388116819016e+00,8.072505200096931066e-01,1.671246739497096900e+00
1.761333460948160410e+09,-2.610276054295785464e+00,2.442108763045119257e+00,7.842296218934211582e-01,1.670826307507589981e+00
1.761333460966737747e+09,-2.585767795735502084e+00,2.464819244464132364e+00,7.612791970776310313e-01,1.670550598282421806e+00
1.761333460987453699e+09,-2.560698410109217615e+00,2.486901486597827393e+00,7.376973917445637241e-01,1.670369794778549632e+00
1.761333461006852388e+09,-2.535054873868653136e+00,2.508309737633910519e+00,7.131859938617373107e-01,1.670251228172762170e+00
1.761333461027298212e+09,-2.508894534067690252e+00,2.529088193497839754e+00,6.887894447645763751e-01,1.670632387034958866e+00
1.761333461047273159e+09,-2.482261933908770146e+00,2.549269785572693792e+00,6.650105885936385963e-01,1.670978159490500881e+00
1.761333461067298889e+09,-2.455167851354628894e+00,2.568838708844698893e+00,6.416025787302839234e-01,1.671291830777907217e+00
1.761333461086923361e+09,-2.427625520036733153e+00,2.587782086432252271e+00,6.184157174663160728e-01,1.671576381137446221e+00
1.761333461107433081e+09,-2.399649505212739342e+00,2.606088827749730275e+00,5.953594740254246620e-01,1.671834514126867344e+00
1.761333461127005339e+09,-2.371255083663460717e+00,2.623748954574350201e+00,5.723793041523741465e-01,1.672068682308329057e+00
1.761333461147557974e+09,-2.342471822804052195e+00,2.640745092545413897e+00,5.494267342255343411e-01,1.669059784845853933e+00
1.761333461167431831e+09,-2.313702728824765575e+00,2.656849320602477249e+00,5.261197277656941562e-01,1.630040950673254718e+00
1.761333461188161135e+09,-2.285119253747319501e+00,2.671941497193622173e+00,5.022980548289236458e-01,1.602969051787432431e+00
1.761333461207017422e+09,-2.256317918995995875e+00,2.686224482524509849e+00,4.785399555369347913e-01,1.611846010070502100e+00
1.761333461227674961e+09,-2.227019880352538284e+00,2.699904756878149126e+00,4.555931336461027659e-01,1.621569179378794967e+00
1.761333461247260094e+09,-2.197244274810653764e+00,2.712979867093580744e+00,4.331002838479624528e-01,1.630389659395983237e+00
1.761333461267976046e+09,-2.167019238487567279e+00,2.725427769832636571e+00,4.106863600717841623e-01,1.638391254890906978e+00
1.761333461286752939e+09,-2.136327397375653803e+00,2.737167193705237533e+00,3.873978203060595704e-01,1.647610203175072785e+00
1.761333461307522774e+09,-2.105215927583754532e+00,2.748278632770652319e+00,3.644439577842402134e-01,1.655973273542532098e+00
1.761333461327483892e+09,-2.073715783049433270e+00,2.758751723956692548e+00,3.417132632394248026e-01,1.663559924841054638e+00
1.761333461348021507e+09,-2.043739592147324924e+00,2.767993549713843482e+00,3.174182780468827181e-01,1.473359924841054713e+00
1.761333461366874933e+09,-2.017219818368908513e+00,2.775591732663500455e+00,2.925917564897658751e-01,1.287549121755426684e+00
1.761333461388303995e+09,-1.993807578462472252e+00,2.781781096138211229e+00,2.698389332505669591e-01,1.141813427799030167e+00
1.761333461406813383e+09,-1.972826729076039953e+00,2.786780024726692062e+00,2.499961413537628019e-01,9.939065009179506305e-01
1.761333461428212643e+09,-1.955249382885233755e+00,2.790544056743833767e+00,2.326101844413741015e-01,8.037065009179507058e-01
1.761333461447539568e+09,-1.941003069051805641e+00,2.793316155105318721e+00,2.196015103659520185e-01,6.516685442137253315e-01
1.761333461468061209e+09,-1.928143714889399174e+00,2.795470748765832347e+00,2.105503455926480416e-01,6.522292513004499526e-01
1.761333461487139940e+09,-1.915238342371714753e+00,2.797406451692550977e+00,2.038421086743069655e-01,6.527432368693687481e-01
1.761333461507725239e+09,-1.902661459618163020e+00,2.799262945664269253e+00,1.988076262021422069e-01,6.202800079031537406e-01
1.761333461527419090e+09,-1.891557094186185450e+00,2.800930693384525494e+00,1.951185926668037030e-01,5.084881521303112883e-01
1.761333461547505379e+09,-1.882349670025396104e+00,2.802701573579289285e+00,1.928325638475355819e-01,4.309251663051576475e-01
1.761333461567680597e+09,-1.874505692152891534e+00,2.804225729490703589e+00,1.912617912986286639e-01,3.712776875372345575e-01
1.761333461587821245e+09,-1.867661509648073981e+00,2.805547378678964421e+00,1.902479985442132315e-01,3.280558762450784815e-01
1.761333461607086897e+09,-1.859846054982019492e+00,2.807050961521966759e+00,1.898625581282066821e-01,4.661401334118876472e-01
1.761333461627467871e+09,-1.849377035471418074e+00,2.808817251909660584e+00,1.892309424357047631e-01,5.941740391060491566e-01
1.761333461647002935e+09,-1.836492436398061034e+00,2.810944584559150528e+00,1.882389663949372571e-01,7.103214053495551239e-01
1.761333461668145180e+09,-1.822348437420306722e+00,2.813378457182091896e+00,1.873223320040398598e-01,7.246938246304692743e-01
1.761333461686947584e+09,-1.807942681710222876e+00,2.815910109382004478e+00,1.865153312748891734e-01,7.378686050843231703e-01
1.761333461708220482e+09,-1.793289632845708415e+00,2.818511269984183887e+00,1.857522755957277671e-01,7.501950604850773363e-01
1.761333461726902962e+09,-1.778667882870395012e+00,2.821117650485312378e+00,1.850145427216790817e-01,7.084075547800531281e-01
1.761333461748212099e+09,-1.765826129248530219e+00,2.823408243927446382e+00,1.843203108370942700e-01,6.016470573991176130e-01
1.761333461766998768e+09,-1.754781366710461921e+00,2.825375964986161392e+00,1.837125783133495005e-01,5.242861828089460108e-01
1.761333461788172007e+09,-1.745045514163628297e+00,2.827146940443078904e+00,1.832227915499582138e-01,4.682288819216129938e-01
1.761333461807013988e+09,-1.736764478087630126e+00,2.828679627165294086e+00,1.828138847649483922e-01,3.786463941551572732e-01
1.761333461827603340e+09,-1.729917524768885828e+00,2.829941919411430362e+00,1.818014232678772102e-01,3.206357483377889062e-01
1.761333461846854925e+09,-1.722057442638791569e+00,2.831381385071383150e+00,1.801993982162744257e-01,4.765462418994462768e-01
1.761333461867855549e+09,-1.711233130006581726e+00,2.833113108605448627e+00,1.770643584244300517e-01,6.179821615391091205e-01
1.761333461887222528e+09,-1.697693767768999606e+00,2.834909104346650111e+00,1.725193813465568660e-01,7.462873121889351813e-01
1.761333461907630920e+09,-1.681681204978423549e+00,2.836616925385161636e+00,1.651448237714458478e-01,8.626807412783449314e-01
1.761333461927187681e+09,-1.663415905440596809e+00,2.838053442008107830e+00,1.541933309740056712e-01,9.682683210955065345e-01
1.761333461947805166e+09,-1.643105289228705468e+00,2.839028535367302375e+00,1.390706661311784664e-01,1.064053255853991464e+00
1.761333461967108727e+09,-1.620948626488232014e+00,2.839402613859961733e+00,1.198742759786358553e-01,1.150945613293895997e+00
1.761333461987512827e+09,-1.597133808469808791e+00,2.839153620475865392e+00,9.767786334103197021e-02,1.229770971378667976e+00
1.761333462006898642e+09,-1.571831294687269009e+00,2.838251570299053395e+00,7.311753063783013595e-02,1.301278262241271078e+00
1.761333462027223825e+09,-1.545197645836761113e+00,2.836653841258471864e+00,4.659259603747753498e-02,1.366146887906249274e+00
1.761333462047235012e+09,-1.517378332908259075e+00,2.834309616376201824e+00,1.838255512919900053e-02,1.424993175395288247e+00
1.761333462067752361e+09,-1.488509775458418671e+00,2.831163543686715300e+00,-1.130214157812605737e-02,1.478376232547248037e+00
1.761333462086872578e+09,-1.458720898672420274e+00,2.827158482475020662e+00,-4.229501361109669344e-02,1.526803260189734557e+00
1.761333462107362032e+09,-1.428134366654501219e+00,2.822237514606805053e+00,-7.445971089911676555e-02,1.570734371133987839e+00
1.761333462127127886e+09,-1.396867579028715944e+00,2.816345411893165007e+00,-1.076816510421434586e-01,1.610586961779115533e+00
1.761333462147759438e+09,-1.365033482653826846e+00,2.809429709077735371e+00,-1.418626021168887530e-01,1.646739677860971751e+00
