# time,x,y,theta,velocity
1.762313355183089018e+09,1.735470771789550781e+01,-8.612549781799316406e+00,-1.436903238296508789e+00,4.000000000000000000e+00
1.762313355202780962e+09,1.736692237854003906e+01,-8.689153671264648438e+00,-1.438823699951171875e+00,4.000000000000000000e+00
1.762313355223095179e+09,1.737849426269531250e+01,-8.762487411499023438e+00,-1.439581394195556641e+00,4.000000000000000000e+00
1.762313355242667198e+09,1.738973236083984375e+01,-8.838600158691406250e+00,-1.445211410522460938e+00,4.000000000000000000e+00
1.762313355263175726e+09,1.740158462524414062e+01,-8.918870925903320312e+00,-1.450771570205688477e+00,4.000000000000000000e+00
1.762313355282887220e+09,1.741392517089843750e+01,-9.001675605773925781e+00,-1.455303788185119629e+00,4.000000000000000000e+00
1.762313355303401709e+09,1.742611885070800781e+01,-9.089737892150878906e+00,-1.459347128868103027e+00,4.000000000000000000e+00
1.762313355322882891e+09,1.743657493591308594e+01,-9.169974327087402344e+00,-1.461675167083740234e+00,4.000000000000000000e+00
1.762313355343297005e+09,1.744692611694335938e+01,-9.249143600463867188e+00,-1.463630676269531250e+00,4.000000000000000000e+00
1.762313355362764835e+09,1.745777320861816406e+01,-9.330684661865234375e+00,-1.464190840721130371e+00,4.000000000000000000e+00
1.762313355383291245e+09,1.746966743469238281e+01,-9.420240402221679688e+00,-1.464984059333801270e+00,4.000000000000000000e+00
1.762313355402744532e+09,1.748037147521972656e+01,-9.503381729125976562e+00,-1.464314341545104980e+00,4.000000000000000000e+00
1.762313355423177004e+09,1.748911094665527344e+01,-9.581722259521484375e+00,-1.463554382324218750e+00,4.000000000000000000e+00
1.762313355442813873e+09,1.749869918823242188e+01,-9.664059638977050781e+00,-1.462546586990356445e+00,4.000000000000000000e+00
1.762313355463047504e+09,1.750843620300292969e+01,-9.746267318725585938e+00,-1.461557626724243164e+00,4.000000000000000000e+00
1.762313355482732773e+09,1.751817321777343750e+01,-9.828426361083984375e+00,-1.460496306419372559e+00,4.000000000000000000e+00
1.762313355503128290e+09,1.752693939208984375e+01,-9.906670570373535156e+00,-1.459240794181823730e+00,4.000000000000000000e+00
1.762313355522870064e+09,1.753639984130859375e+01,-9.986223220825195312e+00,-1.457299828529357910e+00,4.000000000000000000e+00
1.762313355543249607e+09,1.754649162292480469e+01,-1.006822872161865234e+01,-1.455709099769592285e+00,4.000000000000000000e+00
1.762313355562723398e+09,1.755659103393554688e+01,-1.014971923828125000e+01,-1.454860091209411621e+00,4.000000000000000000e+00
1.762313355583116770e+09,1.756558227539062500e+01,-1.022442054748535156e+01,-1.452857255935668945e+00,4.000000000000000000e+00
1.762313355602715492e+09,1.757264518737792969e+01,-1.028985786437988281e+01,-1.450874805450439453e+00,4.000000000000000000e+00
1.762313355623434544e+09,1.758107566833496094e+01,-1.035982990264892578e+01,-1.448372840881347656e+00,4.000000000000000000e+00
1.762313355642818689e+09,1.759030532836914062e+01,-1.043667793273925781e+01,-1.448187232017517090e+00,4.000000000000000000e+00
1.762313355663064241e+09,1.760098457336425781e+01,-1.051725578308105469e+01,-1.448973774909973145e+00,4.000000000000000000e+00
1.762313355682855606e+09,1.761077880859375000e+01,-1.059332466125488281e+01,-1.449822306632995605e+00,4.000000000000000000e+00
1.762313355702881098e+09,1.761918449401855469e+01,-1.066356277465820312e+01,-1.449944734573364258e+00,4.000000000000000000e+00
1.762313355722908258e+09,1.762828636169433594e+01,-1.073976802825927734e+01,-1.452688932418823242e+00,4.000000000000000000e+00
1.762313355743230820e+09,1.763736343383789062e+01,-1.081405258178710938e+01,-1.454298734664916992e+00,4.000000000000000000e+00
1.762313355762873173e+09,1.764871406555175781e+01,-1.089675140380859375e+01,-1.455850839614868164e+00,4.000000000000000000e+00
1.762313355783291817e+09,1.765865516662597656e+01,-1.097851753234863281e+01,-1.459277272224426270e+00,4.000000000000000000e+00
1.762313355802767277e+09,1.766839408874511719e+01,-1.105909729003906250e+01,-1.460003495216369629e+00,4.000000000000000000e+00
1.762313355823355913e+09,1.767738342285156250e+01,-1.113522815704345703e+01,-1.459678411483764648e+00,4.000000000000000000e+00
1.762313355842730284e+09,1.768645286560058594e+01,-1.121455192565917969e+01,-1.459646940231323242e+00,4.000000000000000000e+00
1.762313355863517523e+09,1.769472885131835938e+01,-1.129043197631835938e+01,-1.459072828292846680e+00,4.000000000000000000e+00
1.762313355882658958e+09,1.770221519470214844e+01,-1.136649513244628906e+01,-1.458724379539489746e+00,4.000000000000000000e+00
1.762313355903316498e+09,1.771061706542968750e+01,-1.144597721099853516e+01,-1.457764625549316406e+00,4.000000000000000000e+00
1.762313355922983408e+09,1.771996879577636719e+01,-1.152796649932861328e+01,-1.455877780914306641e+00,4.000000000000000000e+00
1.762313355943254709e+09,1.772869873046875000e+01,-1.160516548156738281e+01,-1.454238653182983398e+00,4.000000000000000000e+00
1.762313355962864637e+09,1.773662567138671875e+01,-1.167854976654052734e+01,-1.453295111656188965e+00,4.000000000000000000e+00
1.762313355983344793e+09,1.774565505981445312e+01,-1.175740909576416016e+01,-1.452371239662170410e+00,4.000000000000000000e+00
1.762313356002952576e+09,1.775506973266601562e+01,-1.183677482604980469e+01,-1.452194452285766602e+00,4.000000000000000000e+00
1.762313356023473978e+09,1.776361656188964844e+01,-1.191256427764892578e+01,-1.452416300773620605e+00,4.000000000000000000e+00
1.762313356042811155e+09,1.777205657958984375e+01,-1.198978424072265625e+01,-1.455349445343017578e+00,4.000000000000000000e+00
1.762313356063201189e+09,1.778004455566406250e+01,-1.206472682952880859e+01,-1.457787394523620605e+00,4.000000000000000000e+00
1.762313356082953691e+09,1.778801155090332031e+01,-1.213590621948242188e+01,-1.458990931510925293e+00,4.000000000000000000e+00
1.762313356103493929e+09,1.779717254638671875e+01,-1.220904254913330078e+01,-1.460133671760559082e+00,4.000000000000000000e+00
1.762313356123102903e+09,1.780699729919433594e+01,-1.229197406768798828e+01,-1.461927533149719238e+00,4.000000000000000000e+00
1.762313356143226862e+09,1.781635284423828125e+01,-1.237078857421875000e+01,-1.463098645210266113e+00,4.000000000000000000e+00
1.762313356162592888e+09,1.782501029968261719e+01,-1.244290733337402344e+01,-1.463562011718750000e+00,4.000000000000000000e+00
1.762313356183264732e+09,1.783512878417968750e+01,-1.252702999114990234e+01,-1.464908599853515625e+00,4.000000000000000000e+00
1.762313356202880621e+09,1.784384155273437500e+01,-1.260528659820556641e+01,-1.465552449226379395e+00,4.000000000000000000e+00
1.762313356223169565e+09,1.785252189636230469e+01,-1.268452072143554688e+01,-1.465560674667358398e+00,4.000000000000000000e+00
1.762313356242684603e+09,1.786169815063476562e+01,-1.277028656005859375e+01,-1.467351675033569336e+00,4.000000000000000000e+00
1.762313356263341665e+09,1.787182235717773438e+01,-1.285894584655761719e+01,-1.467955708503723145e+00,4.000000000000000000e+00
1.762313356282607317e+09,1.788218688964843750e+01,-1.294842052459716797e+01,-1.467032194137573242e+00,4.000000000000000000e+00
1.762313356304495573e+09,1.789076995849609375e+01,-1.303211688995361328e+01,-1.465877413749694824e+00,4.000000000000000000e+00
1.762313356323323250e+09,1.789824485778808594e+01,-1.311101531982421875e+01,-1.466619133949279785e+00,4.000000000000000000e+00
1.762313356342965603e+09,1.790638542175292969e+01,-1.319328880310058594e+01,-1.467875480651855469e+00,4.000000000000000000e+00
1.762313356362867594e+09,1.791493034362792969e+01,-1.327694511413574219e+01,-1.469311952590942383e+00,4.000000000000000000e+00
1.762313356382837772e+09,1.792353439331054688e+01,-1.335904121398925781e+01,-1.465897798538208008e+00,4.000000000000000000e+00
1.762313356403069496e+09,1.793149757385253906e+01,-1.343628501892089844e+01,-1.463925480842590332e+00,4.000000000000000000e+00
1.762313356423244238e+09,1.793957328796386719e+01,-1.351381301879882812e+01,-1.462984681129455566e+00,4.000000000000000000e+00
1.762313356442882538e+09,1.794633865356445312e+01,-1.359604454040527344e+01,-1.465176343917846680e+00,4.000000000000000000e+00
1.762313356463367224e+09,1.795350646972656250e+01,-1.367732429504394531e+01,-1.467875361442565918e+00,4.000000000000000000e+00
1.762313356482831001e+09,1.796235275268554688e+01,-1.376547908782958984e+01,-1.468123197555541992e+00,4.000000000000000000e+00
1.762313356503617764e+09,1.797130966186523438e+01,-1.384784603118896484e+01,-1.466847419738769531e+00,4.000000000000000000e+00
1.762313356523219585e+09,1.797975921630859375e+01,-1.392991065979003906e+01,-1.472010254859924316e+00,4.000000000000000000e+00
1.762313356543676615e+09,1.798871231079101562e+01,-1.401405143737792969e+01,-1.475319027900695801e+00,4.000000000000000000e+00
1.762313356562984467e+09,1.799780464172363281e+01,-1.409633636474609375e+01,-1.476923823356628418e+00,4.000000000000000000e+00
1.762313356583470345e+09,1.800712776184082031e+01,-1.418210983276367188e+01,-1.478054046630859375e+00,4.000000000000000000e+00
1.762313356602746248e+09,1.801645851135253906e+01,-1.426766490936279297e+01,-1.477996587753295898e+00,4.000000000000000000e+00
1.762313356623244047e+09,1.802573966979980469e+01,-1.435292530059814453e+01,-1.477638959884643555e+00,4.000000000000000000e+00
1.762313356642631769e+09,1.803585052490234375e+01,-1.444420719146728516e+01,-1.477301597595214844e+00,4.000000000000000000e+00
1.762313356663478136e+09,1.804510307312011719e+01,-1.453090190887451172e+01,-1.476785182952880859e+00,4.000000000000000000e+00
1.762313356682824612e+09,1.805429458618164062e+01,-1.461480331420898438e+01,-1.476254940032958984e+00,4.000000000000000000e+00
1.762313356703484774e+09,1.806249237060546875e+01,-1.469530391693115234e+01,-1.475634217262268066e+00,4.000000000000000000e+00
1.762313356722908735e+09,1.806975555419921875e+01,-1.477171421051025391e+01,-1.474851608276367188e+00,4.000000000000000000e+00
1.762313356743821859e+09,1.807786369323730469e+01,-1.485419178009033203e+01,-1.473678827285766602e+00,4.000000000000000000e+00
1.762313356763083220e+09,1.808694458007812500e+01,-1.494009113311767578e+01,-1.473169326782226562e+00,4.000000000000000000e+00
1.762313356784113169e+09,1.809405136108398438e+01,-1.501891136169433594e+01,-1.469936609268188477e+00,4.000000000000000000e+00
1.762313356804038525e+09,1.809972763061523438e+01,-1.509051990509033203e+01,-1.467161536216735840e+00,4.000000000000000000e+00
1.762313356824043751e+09,1.810594749450683594e+01,-1.516581726074218750e+01,-1.464707970619201660e+00,4.000000000000000000e+00
1.762313356844259024e+09,1.811490249633789062e+01,-1.525300884246826172e+01,-1.467138171195983887e+00,4.000000000000000000e+00
1.762313356864288330e+09,1.812300300598144531e+01,-1.533465003967285156e+01,-1.467867255210876465e+00,4.000000000000000000e+00
1.762313356883898497e+09,1.813098907470703125e+01,-1.541382980346679688e+01,-1.466672897338867188e+00,4.000000000000000000e+00
1.762313356903565884e+09,1.813835525512695312e+01,-1.548703098297119141e+01,-1.464626550674438477e+00,4.000000000000000000e+00
1.762313356923295498e+09,1.814724159240722656e+01,-1.556963062286376953e+01,-1.470317482948303223e+00,4.000000000000000000e+00
1.762313356943523407e+09,1.815634346008300781e+01,-1.565184879302978516e+01,-1.474607586860656738e+00,4.000000000000000000e+00
1.762313356963050604e+09,1.816314888000488281e+01,-1.572232151031494141e+01,-1.476346254348754883e+00,4.000000000000000000e+00
1.762313356983543634e+09,1.816999816894531250e+01,-1.579586791992187500e+01,-1.478212952613830566e+00,4.000000000000000000e+00
1.762313357003007412e+09,1.817675971984863281e+01,-1.586824512481689453e+01,-1.478485107421875000e+00,4.000000000000000000e+00
1.762313357023279428e+09,1.818430709838867188e+01,-1.594570255279541016e+01,-1.477957248687744141e+00,4.000000000000000000e+00
1.762313357042566776e+09,1.819173622131347656e+01,-1.602466964721679688e+01,-1.477973818778991699e+00,4.000000000000000000e+00
1.762313357063057423e+09,1.819982910156250000e+01,-1.610539627075195312e+01,-1.477520704269409180e+00,4.000000000000000000e+00
1.762313357082572222e+09,1.820758628845214844e+01,-1.618603706359863281e+01,-1.477029561996459961e+00,4.000000000000000000e+00
1.762313357103157282e+09,1.821501541137695312e+01,-1.626326560974121094e+01,-1.476161122322082520e+00,4.000000000000000000e+00
1.762313357122614384e+09,1.822150993347167969e+01,-1.633674430847167969e+01,-1.477105379104614258e+00,4.000000000000000000e+00
1.762313357142940044e+09,1.822812271118164062e+01,-1.641209411621093750e+01,-1.476923465728759766e+00,4.000000000000000000e+00
1.762313357162603855e+09,1.823447036743164062e+01,-1.648610305786132812e+01,-1.476176381111145020e+00,4.000000000000000000e+00
1.762313357183166027e+09,1.824092102050781250e+01,-1.656086921691894531e+01,-1.475271701812744141e+00,4.000000000000000000e+00
1.762313357202603340e+09,1.824803161621093750e+01,-1.663684272766113281e+01,-1.475039243698120117e+00,4.000000000000000000e+00
1.762313357223076582e+09,1.825613784790039062e+01,-1.671707153320312500e+01,-1.474017739295959473e+00,4.000000000000000000e+00
1.762313357242599726e+09,1.826414680480957031e+01,-1.679936218261718750e+01,-1.473825931549072266e+00,4.000000000000000000e+00
1.762313357263082266e+09,1.827604484558105469e+01,-1.690383338928222656e+01,-1.467684507369995117e+00,4.000000000000000000e+00
1.762313357282696724e+09,1.828912544250488281e+01,-1.700123023986816406e+01,-1.459478020668029785e+00,4.000000000000000000e+00
1.762313357302824974e+09,1.829987525939941406e+01,-1.708281707763671875e+01,-1.456060409545898438e+00,4.000000000000000000e+00
1.762313357322636127e+09,1.830984878540039062e+01,-1.716362380981445312e+01,-1.455634593963623047e+00,4.000000000000000000e+00
1.762313357342830181e+09,1.832075691223144531e+01,-1.724864196777343750e+01,-1.455345153808593750e+00,4.000000000000000000e+00
1.762313357362682343e+09,1.833038902282714844e+01,-1.732723808288574219e+01,-1.454722642898559570e+00,4.000000000000000000e+00
1.762313357383282185e+09,1.833936691284179688e+01,-1.741070365905761719e+01,-1.460192918777465820e+00,4.000000000000000000e+00
1.762313357402802467e+09,1.834730720520019531e+01,-1.748719406127929688e+01,-1.462538242340087891e+00,4.000000000000000000e+00
1.762313357423731804e+09,1.835704231262207031e+01,-1.757272911071777344e+01,-1.462305307388305664e+00,4.000000000000000000e+00
1.762313357442748547e+09,1.836758804321289062e+01,-1.766123962402343750e+01,-1.462190151214599609e+00,4.000000000000000000e+00
1.762313357463230848e+09,1.837863349914550781e+01,-1.775262069702148438e+01,-1.459004402160644531e+00,4.000000000000000000e+00
1.762313357482792377e+09,1.838716125488281250e+01,-1.783016395568847656e+01,-1.455386161804199219e+00,4.000000000000000000e+00
1.762313357504024982e+09,1.839617156982421875e+01,-1.790779876708984375e+01,-1.451812386512756348e+00,4.000000000000000000e+00
1.762313357522848845e+09,1.840567970275878906e+01,-1.799081611633300781e+01,-1.450095891952514648e+00,4.000000000000000000e+00
1.762313357543673515e+09,1.841618347167968750e+01,-1.807756996154785156e+01,-1.447388768196105957e+00,4.000000000000000000e+00
1.762313357562889576e+09,1.842557144165039062e+01,-1.815682792663574219e+01,-1.444809794425964355e+00,4.000000000000000000e+00
1.762313357583377361e+09,1.843482017517089844e+01,-1.823666572570800781e+01,-1.442918300628662109e+00,4.000000000000000000e+00
1.762313357602775335e+09,1.844390487670898438e+01,-1.831322669982910156e+01,-1.441473245620727539e+00,4.000000000000000000e+00
1.762313357623340845e+09,1.845337867736816406e+01,-1.839176368713378906e+01,-1.440918087959289551e+00,4.000000000000000000e+00
1.762313357642885685e+09,1.846292877197265625e+01,-1.847143173217773438e+01,-1.440810441970825195e+00,4.000000000000000000e+00
1.762313357663291931e+09,1.847192001342773438e+01,-1.854598617553710938e+01,-1.440325856208801270e+00,4.000000000000000000e+00
1.762313357682826281e+09,1.848158073425292969e+01,-1.862112426757812500e+01,-1.438869833946228027e+00,4.000000000000000000e+00
1.762313357703374147e+09,1.849269294738769531e+01,-1.869932746887207031e+01,-1.437471270561218262e+00,4.000000000000000000e+00
1.762313357722947598e+09,1.850324821472167969e+01,-1.878226280212402344e+01,-1.441201448440551758e+00,4.000000000000000000e+00
1.762313357743745565e+09,1.851368141174316406e+01,-1.886404037475585938e+01,-1.444264769554138184e+00,4.000000000000000000e+00
1.762313357762971163e+09,1.852227783203125000e+01,-1.893543434143066406e+01,-1.445840001106262207e+00,4.000000000000000000e+00
1.762313357783376932e+09,1.853224372863769531e+01,-1.901787567138671875e+01,-1.448617935180664062e+00,4.000000000000000000e+00
1.762313357802774668e+09,1.854124450683593750e+01,-1.909292411804199219e+01,-1.449248313903808594e+00,4.000000000000000000e+00
1.762313357823380470e+09,1.855091667175292969e+01,-1.916976737976074219e+01,-1.448920130729675293e+00,4.000000000000000000e+00
1.762313357842884064e+09,1.856097221374511719e+01,-1.925337409973144531e+01,-1.449390292167663574e+00,4.000000000000000000e+00
1.762313357863341093e+09,1.857085800170898438e+01,-1.933315277099609375e+01,-1.448486447334289551e+00,4.000000000000000000e+00
1.762313357882881403e+09,1.858006858825683594e+01,-1.941004180908203125e+01,-1.446736335754394531e+00,4.000000000000000000e+00
1.762313357904027224e+09,1.858814811706542969e+01,-1.947955131530761719e+01,-1.445427775382995605e+00,4.000000000000000000e+00
1.762313357922839403e+09,1.859883689880371094e+01,-1.956265068054199219e+01,-1.444259166717529297e+00,4.000000000000000000e+00
1.762313357943674564e+09,1.861021423339843750e+01,-1.964876365661621094e+01,-1.443449258804321289e+00,4.000000000000000000e+00
1.762313357962944984e+09,1.861840248107910156e+01,-1.972087097167968750e+01,-1.442772030830383301e+00,4.000000000000000000e+00
1.762313357983735323e+09,1.862626266479492188e+01,-1.978841018676757812e+01,-1.440285086631774902e+00,4.000000000000000000e+00
1.762313358002947330e+09,1.863633537292480469e+01,-1.986494445800781250e+01,-1.436348438262939453e+00,4.000000000000000000e+00
1.762313358023521423e+09,1.864741706848144531e+01,-1.994740867614746094e+01,-1.433304071426391602e+00,4.000000000000000000e+00
1.762313358043244362e+09,1.865761375427246094e+01,-2.002551651000976562e+01,-1.430738329887390137e+00,4.000000000000000000e+00
1.762313358063405752e+09,1.866709899902343750e+01,-2.009981155395507812e+01,-1.429139494895935059e+00,4.000000000000000000e+00
1.762313358082909346e+09,1.867704582214355469e+01,-2.017452239990234375e+01,-1.427409172058105469e+00,4.000000000000000000e+00
1.762313358103505611e+09,1.868830299377441406e+01,-2.025287055969238281e+01,-1.425908327102661133e+00,4.000000000000000000e+00
1.762313358123582363e+09,1.869900131225585938e+01,-2.033183097839355469e+01,-1.427725195884704590e+00,4.000000000000000000e+00
1.762313358143903255e+09,1.871065139770507812e+01,-2.041355133056640625e+01,-1.428707838058471680e+00,4.000000000000000000e+00
1.762313358162886858e+09,1.872196578979492188e+01,-2.049466323852539062e+01,-1.428177475929260254e+00,4.000000000000000000e+00
1.762313358183997154e+09,1.873143577575683594e+01,-2.056791687011718750e+01,-1.431683540344238281e+00,4.000000000000000000e+00
1.762313358202959061e+09,1.874153900146484375e+01,-2.064304161071777344e+01,-1.433038115501403809e+00,4.000000000000000000e+00
1.762313358223532915e+09,1.875257682800292969e+01,-2.072148323059082031e+01,-1.432927966117858887e+00,4.000000000000000000e+00
1.762313358242830992e+09,1.876348876953125000e+01,-2.080309867858886719e+01,-1.435412645339965820e+00,4.000000000000000000e+00
1.762313358263579369e+09,1.877303314208984375e+01,-2.087937355041503906e+01,-1.436491489410400391e+00,4.000000000000000000e+00
1.762313358283021212e+09,1.878239631652832031e+01,-2.095432853698730469e+01,-1.436214089393615723e+00,4.000000000000000000e+00
1.762313358303363085e+09,1.879247474670410156e+01,-2.103038406372070312e+01,-1.434573769569396973e+00,4.000000000000000000e+00
