# time,x,y,theta,velocity
1.762313355143524647e+09,1.727995681762695312e+01,-8.522452354431152344e+00,-1.421019911766052246e+00,4.000000000000000000e+00
1.762313355162775993e+09,1.730647087097167969e+01,-8.606679916381835938e+00,-1.425143718719482422e+00,4.000000000000000000e+00
1.762313355183089018e+09,1.733686065673828125e+01,-8.629327774047851562e+00,-1.435273766517639160e+00,4.000000000000000000e+00
1.762313355202780962e+09,1.735673141479492188e+01,-8.652177810668945312e+00,-1.439710617065429688e+00,4.000000000000000000e+00
1.762313355223095179e+09,1.737186431884765625e+01,-8.684387207031250000e+00,-1.442283272743225098e+00,4.000000000000000000e+00
1.762313355242667198e+09,1.739267539978027344e+01,-8.754783630371093750e+00,-1.452854633331298828e+00,4.000000000000000000e+00
1.762313355263175726e+09,1.741135406494140625e+01,-8.820482254028320312e+00,-1.459324359893798828e+00,4.000000000000000000e+00
1.762313355282887220e+09,1.742925834655761719e+01,-8.889962196350097656e+00,-1.462917804718017578e+00,4.000000000000000000e+00
1.762313355303401709e+09,1.744433212280273438e+01,-8.961313247680664062e+00,-1.464603781700134277e+00,4.000000000000000000e+00
1.762313355322882891e+09,1.744400978088378906e+01,-9.060275077819824219e+00,-1.466003298759460449e+00,4.000000000000000000e+00
1.762313355343297005e+09,1.744683837890625000e+01,-9.146992683410644531e+00,-1.465899586677551270e+00,4.000000000000000000e+00
1.762313355362764835e+09,1.745147514343261719e+01,-9.230909347534179688e+00,-1.464799046516418457e+00,4.000000000000000000e+00
1.762313355383291245e+09,1.745102882385253906e+01,-9.340918540954589844e+00,-1.464490890502929688e+00,4.000000000000000000e+00
1.762313355402744532e+09,1.745696640014648438e+01,-9.448180198669433594e+00,-1.463565945625305176e+00,4.000000000000000000e+00
1.762313355423177004e+09,1.746452140808105469e+01,-9.540303230285644531e+00,-1.462165355682373047e+00,4.000000000000000000e+00
1.762313355442813873e+09,1.747494316101074219e+01,-9.639128684997558594e+00,-1.460859656333923340e+00,4.000000000000000000e+00
1.762313355463047504e+09,1.748723793029785156e+01,-9.731678962707519531e+00,-1.459990978240966797e+00,4.000000000000000000e+00
1.762313355482732773e+09,1.749917411804199219e+01,-9.814408302307128906e+00,-1.459638833999633789e+00,4.000000000000000000e+00
1.762313355503128290e+09,1.751067924499511719e+01,-9.895947456359863281e+00,-1.459429144859313965e+00,4.000000000000000000e+00
1.762313355522870064e+09,1.753384590148925781e+01,-9.980045318603515625e+00,-1.458936095237731934e+00,4.000000000000000000e+00
1.762313355543249607e+09,1.755224800109863281e+01,-1.005832099914550781e+01,-1.458864212036132812e+00,4.000000000000000000e+00
1.762313355562723398e+09,1.756756019592285156e+01,-1.013127422332763672e+01,-1.458830118179321289e+00,4.000000000000000000e+00
1.762313355583116770e+09,1.758870697021484375e+01,-1.020133209228515625e+01,-1.457962632179260254e+00,4.000000000000000000e+00
1.762313355602715492e+09,1.760584449768066406e+01,-1.026713657379150391e+01,-1.458892583847045898e+00,4.000000000000000000e+00
1.762313355623434544e+09,1.762049102783203125e+01,-1.032901668548583984e+01,-1.460187077522277832e+00,4.000000000000000000e+00
1.762313355642818689e+09,1.762611579895019531e+01,-1.039775753021240234e+01,-1.462237954139709473e+00,4.000000000000000000e+00
1.762313355663064241e+09,1.763271141052246094e+01,-1.045721435546875000e+01,-1.462361454963684082e+00,4.000000000000000000e+00
1.762313355682855606e+09,1.764231300354003906e+01,-1.052282619476318359e+01,-1.462834954261779785e+00,4.000000000000000000e+00
1.762313355702881098e+09,1.764949798583984375e+01,-1.058074760437011719e+01,-1.462519168853759766e+00,4.000000000000000000e+00
1.762313355722908258e+09,1.765159606933593750e+01,-1.066571617126464844e+01,-1.462743639945983887e+00,4.000000000000000000e+00
1.762313355743230820e+09,1.766133308410644531e+01,-1.074927043914794922e+01,-1.463037967681884766e+00,4.000000000000000000e+00
1.762313355762873173e+09,1.767352294921875000e+01,-1.082875061035156250e+01,-1.463150143623352051e+00,4.000000000000000000e+00
1.762313355783291817e+09,1.767204475402832031e+01,-1.091682434082031250e+01,-1.463546633720397949e+00,4.000000000000000000e+00
1.762313355802767277e+09,1.767772293090820312e+01,-1.100346279144287109e+01,-1.463310837745666504e+00,4.000000000000000000e+00
1.762313355823355913e+09,1.768454170227050781e+01,-1.108450412750244141e+01,-1.462347745895385742e+00,4.000000000000000000e+00
1.762313355842730284e+09,1.768212318420410156e+01,-1.117564010620117188e+01,-1.461799263954162598e+00,4.000000000000000000e+00
1.762313355863517523e+09,1.768315315246582031e+01,-1.126317405700683594e+01,-1.460714101791381836e+00,4.000000000000000000e+00
1.762313355882658958e+09,1.768588829040527344e+01,-1.134455680847167969e+01,-1.459010004997253418e+00,4.000000000000000000e+00
1.762313355903316498e+09,1.769002342224121094e+01,-1.141969776153564453e+01,-1.457607150077819824e+00,4.000000000000000000e+00
1.762313355922983408e+09,1.769930458068847656e+01,-1.149386215209960938e+01,-1.456098198890686035e+00,4.000000000000000000e+00
1.762313355943254709e+09,1.770825576782226562e+01,-1.156631088256835938e+01,-1.454895734786987305e+00,4.000000000000000000e+00
1.762313355962864637e+09,1.771860694885253906e+01,-1.163338470458984375e+01,-1.454319238662719727e+00,4.000000000000000000e+00
1.762313355983344793e+09,1.773414802551269531e+01,-1.170792198181152344e+01,-1.454029440879821777e+00,4.000000000000000000e+00
1.762313356002952576e+09,1.774917602539062500e+01,-1.177874851226806641e+01,-1.454599380493164062e+00,4.000000000000000000e+00
1.762313356023473978e+09,1.776456260681152344e+01,-1.185155868530273438e+01,-1.455049514770507812e+00,4.000000000000000000e+00
1.762313356042811155e+09,1.777517890930175781e+01,-1.192936134338378906e+01,-1.458419919013977051e+00,4.000000000000000000e+00
1.762313356063201189e+09,1.778797721862792969e+01,-1.200163459777832031e+01,-1.460174679756164551e+00,4.000000000000000000e+00
1.762313356082953691e+09,1.780188179016113281e+01,-1.207220554351806641e+01,-1.461499929428100586e+00,4.000000000000000000e+00
1.762313356103493929e+09,1.781612586975097656e+01,-1.213930130004882812e+01,-1.462340474128723145e+00,4.000000000000000000e+00
1.762313356123102903e+09,1.781746864318847656e+01,-1.222505187988281250e+01,-1.463113427162170410e+00,4.000000000000000000e+00
1.762313356143226862e+09,1.782211112976074219e+01,-1.230521106719970703e+01,-1.462753057479858398e+00,4.000000000000000000e+00
1.762313356162592888e+09,1.783009147644042969e+01,-1.237560558319091797e+01,-1.462435960769653320e+00,4.000000000000000000e+00
1.762313356183264732e+09,1.782334899902343750e+01,-1.246952247619628906e+01,-1.462755441665649414e+00,4.000000000000000000e+00
1.762313356202880621e+09,1.782491302490234375e+01,-1.255845069885253906e+01,-1.462429642677307129e+00,4.000000000000000000e+00
1.762313356223169565e+09,1.783018493652343750e+01,-1.264362144470214844e+01,-1.461040019989013672e+00,4.000000000000000000e+00
1.762313356242684603e+09,1.782173728942871094e+01,-1.274499225616455078e+01,-1.461299777030944824e+00,4.000000000000000000e+00
1.762313356263341665e+09,1.782323455810546875e+01,-1.284546089172363281e+01,-1.460476398468017578e+00,4.000000000000000000e+00
1.762313356282607317e+09,1.782804489135742188e+01,-1.293211936950683594e+01,-1.459191679954528809e+00,4.000000000000000000e+00
1.762313356304495573e+09,1.783576965332031250e+01,-1.301615142822265625e+01,-1.458010911941528320e+00,4.000000000000000000e+00
1.762313356323323250e+09,1.783454132080078125e+01,-1.309955692291259766e+01,-1.457000970840454102e+00,4.000000000000000000e+00
1.762313356342965603e+09,1.783664894104003906e+01,-1.318160438537597656e+01,-1.455633640289306641e+00,4.000000000000000000e+00
1.762313356362867594e+09,1.784156036376953125e+01,-1.326280212402343750e+01,-1.454541683197021484e+00,4.000000000000000000e+00
1.762313356382837772e+09,1.786881065368652344e+01,-1.334012794494628906e+01,-1.454844474792480469e+00,4.000000000000000000e+00
1.762313356403069496e+09,1.789156532287597656e+01,-1.341294097900390625e+01,-1.455623626708984375e+00,4.000000000000000000e+00
1.762313356423244238e+09,1.790919494628906250e+01,-1.348473167419433594e+01,-1.456423282623291016e+00,4.000000000000000000e+00
1.762313356442882538e+09,1.790698432922363281e+01,-1.358212661743164062e+01,-1.456934332847595215e+00,4.000000000000000000e+00
1.762313356463367224e+09,1.791183853149414062e+01,-1.367284393310546875e+01,-1.456085205078125000e+00,4.000000000000000000e+00
1.762313356482831001e+09,1.792277145385742188e+01,-1.375311470031738281e+01,-1.455660343170166016e+00,4.000000000000000000e+00
1.762313356503617764e+09,1.793440246582031250e+01,-1.382998752593994141e+01,-1.455168843269348145e+00,4.000000000000000000e+00
1.762313356523219585e+09,1.795035934448242188e+01,-1.392491912841796875e+01,-1.461215853691101074e+00,4.000000000000000000e+00
1.762313356543676615e+09,1.796532249450683594e+01,-1.401325607299804688e+01,-1.465061545372009277e+00,4.000000000000000000e+00
1.762313356562984467e+09,1.798349571228027344e+01,-1.409599113464355469e+01,-1.467403173446655273e+00,4.000000000000000000e+00
1.762313356583470345e+09,1.800293159484863281e+01,-1.418998908996582031e+01,-1.471753358840942383e+00,4.000000000000000000e+00
1.762313356602746248e+09,1.802178001403808594e+01,-1.428819179534912109e+01,-1.472918510437011719e+00,4.000000000000000000e+00
1.762313356623244047e+09,1.803693580627441406e+01,-1.438029193878173828e+01,-1.473256111145019531e+00,4.000000000000000000e+00
1.762313356642631769e+09,1.804492759704589844e+01,-1.448399925231933594e+01,-1.473343133926391602e+00,4.000000000000000000e+00
1.762313356663478136e+09,1.805449485778808594e+01,-1.458561801910400391e+01,-1.472361922264099121e+00,4.000000000000000000e+00
1.762313356682824612e+09,1.806676864624023438e+01,-1.467297935485839844e+01,-1.471427321434020996e+00,4.000000000000000000e+00
1.762313356703484774e+09,1.807947731018066406e+01,-1.476072311401367188e+01,-1.469860434532165527e+00,4.000000000000000000e+00
1.762313356722908735e+09,1.809201240539550781e+01,-1.484521961212158203e+01,-1.469044327735900879e+00,4.000000000000000000e+00
1.762313356743821859e+09,1.810588455200195312e+01,-1.493130397796630859e+01,-1.468777179718017578e+00,4.000000000000000000e+00
1.762313356763083220e+09,1.811821365356445312e+01,-1.500842857360839844e+01,-1.468959331512451172e+00,4.000000000000000000e+00
1.762313356784113169e+09,1.809879112243652344e+01,-1.509069728851318359e+01,-1.461902379989624023e+00,4.000000000000000000e+00
1.762313356804038525e+09,1.808387565612792969e+01,-1.516711425781250000e+01,-1.455529570579528809e+00,4.000000000000000000e+00
1.762313356824043751e+09,1.808040809631347656e+01,-1.523600578308105469e+01,-1.451949238777160645e+00,4.000000000000000000e+00
1.762313356844259024e+09,1.807581520080566406e+01,-1.531150436401367188e+01,-1.451247811317443848e+00,4.000000000000000000e+00
1.762313356864288330e+09,1.807825660705566406e+01,-1.538367366790771484e+01,-1.450632333755493164e+00,4.000000000000000000e+00
1.762313356883898497e+09,1.808537673950195312e+01,-1.544517230987548828e+01,-1.450246453285217285e+00,4.000000000000000000e+00
1.762313356903565884e+09,1.809479522705078125e+01,-1.551246452331542969e+01,-1.449504017829895020e+00,4.000000000000000000e+00
1.762313356923295498e+09,1.811106872558593750e+01,-1.559620952606201172e+01,-1.455441236495971680e+00,4.000000000000000000e+00
1.762313356943523407e+09,1.813312721252441406e+01,-1.567464351654052734e+01,-1.459264874458312988e+00,4.000000000000000000e+00
1.762313356963050604e+09,1.815728378295898438e+01,-1.574747085571289062e+01,-1.461378931999206543e+00,4.000000000000000000e+00
1.762313356983543634e+09,1.817070007324218750e+01,-1.582749462127685547e+01,-1.466462135314941406e+00,4.000000000000000000e+00
1.762313357003007412e+09,1.818686676025390625e+01,-1.590031433105468750e+01,-1.468161940574645996e+00,4.000000000000000000e+00
1.762313357023279428e+09,1.819648742675781250e+01,-1.596586036682128906e+01,-1.468010067939758301e+00,4.000000000000000000e+00
1.762313357042566776e+09,1.819938087463378906e+01,-1.604702377319335938e+01,-1.470115780830383301e+00,4.000000000000000000e+00
1.762313357063057423e+09,1.820779228210449219e+01,-1.613034248352050781e+01,-1.470332264900207520e+00,4.000000000000000000e+00
1.762313357082572222e+09,1.821448326110839844e+01,-1.620344543457031250e+01,-1.469588637351989746e+00,4.000000000000000000e+00
1.762313357103157282e+09,1.822460556030273438e+01,-1.626782608032226562e+01,-1.468695878982543945e+00,4.000000000000000000e+00
1.762313357122614384e+09,1.823553276062011719e+01,-1.633950805664062500e+01,-1.472866058349609375e+00,4.000000000000000000e+00
1.762313357142940044e+09,1.824217987060546875e+01,-1.641902542114257812e+01,-1.471500635147094727e+00,4.000000000000000000e+00
1.762313357162603855e+09,1.824152946472167969e+01,-1.650805282592773438e+01,-1.467278957366943359e+00,4.000000000000000000e+00
1.762313357183166027e+09,1.822633934020996094e+01,-1.663004302978515625e+01,-1.457645297050476074e+00,4.000000000000000000e+00
1.762313357202603340e+09,1.821974945068359375e+01,-1.676014900207519531e+01,-1.447981119155883789e+00,4.000000000000000000e+00
1.762313357223076582e+09,1.822699356079101562e+01,-1.686520957946777344e+01,-1.442273020744323730e+00,4.000000000000000000e+00
1.762313357242599726e+09,1.823963928222656250e+01,-1.695677757263183594e+01,-1.443079471588134766e+00,4.000000000000000000e+00
1.762313357263082266e+09,1.825966453552246094e+01,-1.703468132019042969e+01,-1.444304585456848145e+00,4.000000000000000000e+00
1.762313357282696724e+09,1.827733230590820312e+01,-1.710438346862792969e+01,-1.444893598556518555e+00,4.000000000000000000e+00
1.762313357302824974e+09,1.829422187805175781e+01,-1.716767883300781250e+01,-1.444718003273010254e+00,4.000000000000000000e+00
1.762313357322636127e+09,1.830293655395507812e+01,-1.724725341796875000e+01,-1.447610139846801758e+00,4.000000000000000000e+00
1.762313357342830181e+09,1.831596565246582031e+01,-1.732455635070800781e+01,-1.448416471481323242e+00,4.000000000000000000e+00
1.762313357362682343e+09,1.833196830749511719e+01,-1.739725685119628906e+01,-1.448694109916687012e+00,4.000000000000000000e+00
1.762313357383282185e+09,1.832264709472656250e+01,-1.749761390686035156e+01,-1.452582836151123047e+00,4.000000000000000000e+00
1.762313357402802467e+09,1.832352447509765625e+01,-1.759416198730468750e+01,-1.449801564216613770e+00,4.000000000000000000e+00
1.762313357423731804e+09,1.833263587951660156e+01,-1.767995834350585938e+01,-1.447200059890747070e+00,4.000000000000000000e+00
1.762313357442748547e+09,1.833834266662597656e+01,-1.776726913452148438e+01,-1.446692228317260742e+00,4.000000000000000000e+00
1.762313357463230848e+09,1.834726715087890625e+01,-1.784984588623046875e+01,-1.445091366767883301e+00,4.000000000000000000e+00
1.762313357482792377e+09,1.835981750488281250e+01,-1.792982292175292969e+01,-1.443410992622375488e+00,4.000000000000000000e+00
1.762313357504024982e+09,1.837684059143066406e+01,-1.800665664672851562e+01,-1.442103743553161621e+00,4.000000000000000000e+00
1.762313357522848845e+09,1.838871574401855469e+01,-1.808376884460449219e+01,-1.442486047744750977e+00,4.000000000000000000e+00
1.762313357543673515e+09,1.840333175659179688e+01,-1.815898323059082031e+01,-1.442246198654174805e+00,4.000000000000000000e+00
1.762313357562889576e+09,1.841859626770019531e+01,-1.822948074340820312e+01,-1.441711425781250000e+00,4.000000000000000000e+00
1.762313357583377361e+09,1.843123626708984375e+01,-1.830222129821777344e+01,-1.441762328147888184e+00,4.000000000000000000e+00
1.762313357602775335e+09,1.844664764404296875e+01,-1.837100982666015625e+01,-1.441860795021057129e+00,4.000000000000000000e+00
1.762313357623340845e+09,1.846290779113769531e+01,-1.843554496765136719e+01,-1.442049980163574219e+00,4.000000000000000000e+00
1.762313357642885685e+09,1.848500633239746094e+01,-1.851290893554687500e+01,-1.442922234535217285e+00,4.000000000000000000e+00
1.762313357663291931e+09,1.850748825073242188e+01,-1.858583831787109375e+01,-1.444428563117980957e+00,4.000000000000000000e+00
1.762313357682826281e+09,1.852831459045410156e+01,-1.865405273437500000e+01,-1.445198655128479004e+00,4.000000000000000000e+00
1.762313357703374147e+09,1.854538536071777344e+01,-1.871877861022949219e+01,-1.445458292961120605e+00,4.000000000000000000e+00
1.762313357722947598e+09,1.854589462280273438e+01,-1.880639076232910156e+01,-1.449961662292480469e+00,4.000000000000000000e+00
1.762313357743745565e+09,1.855329513549804688e+01,-1.888189697265625000e+01,-1.451706528663635254e+00,4.000000000000000000e+00
1.762313357762971163e+09,1.856273651123046875e+01,-1.895063972473144531e+01,-1.451651215553283691e+00,4.000000000000000000e+00
1.762313357783376932e+09,1.855591583251953125e+01,-1.904144096374511719e+01,-1.452655911445617676e+00,4.000000000000000000e+00
1.762313357802774668e+09,1.855885505676269531e+01,-1.911919403076171875e+01,-1.452594041824340820e+00,4.000000000000000000e+00
1.762313357823380470e+09,1.856693458557128906e+01,-1.919217872619628906e+01,-1.451676845550537109e+00,4.000000000000000000e+00
1.762313357842884064e+09,1.856520462036132812e+01,-1.927136993408203125e+01,-1.451129198074340820e+00,4.000000000000000000e+00
1.762313357863341093e+09,1.857118225097656250e+01,-1.934824371337890625e+01,-1.449650764465332031e+00,4.000000000000000000e+00
1.762313357882881403e+09,1.857917213439941406e+01,-1.941736030578613281e+01,-1.448846220970153809e+00,4.000000000000000000e+00
1.762313357904027224e+09,1.859032440185546875e+01,-1.948475837707519531e+01,-1.447521090507507324e+00,4.000000000000000000e+00
1.762313357922839403e+09,1.860643577575683594e+01,-1.957012939453125000e+01,-1.447458744049072266e+00,4.000000000000000000e+00
1.762313357943674564e+09,1.862170028686523438e+01,-1.965064811706542969e+01,-1.447319030761718750e+00,4.000000000000000000e+00
1.762313357962944984e+09,1.863718986511230469e+01,-1.972297859191894531e+01,-1.447453141212463379e+00,4.000000000000000000e+00
1.762313357983735323e+09,1.865471076965332031e+01,-1.980221557617187500e+01,-1.446364641189575195e+00,4.000000000000000000e+00
1.762313358002947330e+09,1.867387008666992188e+01,-1.987990951538085938e+01,-1.446270346641540527e+00,4.000000000000000000e+00
1.762313358023521423e+09,1.869214248657226562e+01,-1.995478057861328125e+01,-1.446723461151123047e+00,4.000000000000000000e+00
1.762313358043244362e+09,1.870530891418457031e+01,-2.003814125061035156e+01,-1.444612622261047363e+00,4.000000000000000000e+00
1.762313358063405752e+09,1.872103309631347656e+01,-2.011625671386718750e+01,-1.443745732307434082e+00,4.000000000000000000e+00
1.762313358082909346e+09,1.873743438720703125e+01,-2.018803787231445312e+01,-1.443633913993835449e+00,4.000000000000000000e+00
1.762313358103505611e+09,1.875245857238769531e+01,-2.025581359863281250e+01,-1.443440318107604980e+00,4.000000000000000000e+00
1.762313358123582363e+09,1.876230430603027344e+01,-2.034385871887207031e+01,-1.447520375251770020e+00,4.000000000000000000e+00
1.762313358143903255e+09,1.877680587768554688e+01,-2.042731285095214844e+01,-1.450054168701171875e+00,4.000000000000000000e+00
1.762313358162886858e+09,1.879077339172363281e+01,-2.050026512145996094e+01,-1.450977563858032227e+00,4.000000000000000000e+00
1.762313358183997154e+09,1.879249954223632812e+01,-2.059054374694824219e+01,-1.452244400978088379e+00,4.000000000000000000e+00
1.762313358202959061e+09,1.880082130432128906e+01,-2.067013931274414062e+01,-1.451891064643859863e+00,4.000000000000000000e+00
1.762313358223532915e+09,1.881330680847167969e+01,-2.074426841735839844e+01,-1.451234340667724609e+00,4.000000000000000000e+00
1.762313358242830992e+09,1.881890678405761719e+01,-2.084107017517089844e+01,-1.450903177261352539e+00,4.000000000000000000e+00
1.762313358263579369e+09,1.882860946655273438e+01,-2.092694473266601562e+01,-1.450319766998291016e+00,4.000000000000000000e+00
