# time,x,y,theta,velocity
1.760561423525861979e+09,7.090360641479492188e+00,3.641520440578460693e-01,-2.958240807056427002e-01,7.105730533599853516e+00
1.760561423546705008e+09,7.229276657104492188e+00,3.363391160964965820e-01,-3.090559244155883789e-01,7.063898086547851562e+00
1.760561423565423489e+09,7.366857051849365234e+00,3.064483404159545898e-01,-3.213119506835937500e-01,7.017680168151855469e+00
1.760561423586161137e+09,7.503116130828857422e+00,2.745703756809234619e-01,-3.327059447765350342e-01,6.978370189666748047e+00
1.760561423605445147e+09,7.638027191162109375e+00,2.406376004219055176e-01,-3.454019129276275635e-01,6.935385704040527344e+00
1.760561423625871658e+09,7.771569252014160156e+00,2.045848369598388672e-01,-3.606351912021636963e-01,6.898998737335205078e+00
1.760561423645787477e+09,7.903823375701904297e+00,1.664462238550186157e-01,-3.773410618305206299e-01,6.867213726043701172e+00
1.760561423666394949e+09,8.034758567810058594e+00,1.262523382902145386e-01,-3.950988054275512695e-01,6.831367015838623047e+00
1.760561423685754299e+09,8.164350509643554688e+00,8.400928229093551636e-02,-4.135232865810394287e-01,6.800790309906005859e+00
1.760561423706427336e+09,8.292643547058105469e+00,3.969123214483261108e-02,-4.321340322494506836e-01,6.773965358734130859e+00
1.760561423725458145e+09,8.419592857360839844e+00,-6.697499658912420273e-03,-4.508686959743499756e-01,6.743742465972900391e+00
1.760561423745991707e+09,8.545169830322265625e+00,-5.515620484948158264e-02,-4.696048498153686523e-01,6.718080997467041016e+00
1.760561423765581131e+09,8.669405937194824219e+00,-1.057028248906135559e-01,-4.880786240100860596e-01,6.695736408233642578e+00
1.760561423785872698e+09,8.792254447937011719e+00,-1.583459973335266113e-01,-5.066739320755004883e-01,6.671069145202636719e+00
1.760561423805519581e+09,8.913584709167480469e+00,-2.133162021636962891e-01,-5.282787084579467773e-01,6.650416374206542969e+00
1.760561423826177359e+09,9.033391952514648438e+00,-2.706508934497833252e-01,-5.520296096801757812e-01,6.632765769958496094e+00
1.760561423846032858e+09,9.151620864868164062e+00,-3.303734958171844482e-01,-5.772165656089782715e-01,6.614138603210449219e+00
1.760561423865966320e+09,9.268209457397460938e+00,-3.925265073776245117e-01,-6.032689809799194336e-01,6.598993778228759766e+00
1.760561423885807276e+09,9.383120536804199219e+00,-4.571702778339385986e-01,-6.296570301055908203e-01,6.586588859558105469e+00
1.760561423906189442e+09,9.496305465698242188e+00,-5.243519544601440430e-01,-6.560490131378173828e-01,6.576333999633789062e+00
1.760561423925711155e+09,9.607694625854492188e+00,-5.940956473350524902e-01,-6.822972893714904785e-01,6.566709041595458984e+00
1.760561423946414232e+09,9.717223167419433594e+00,-6.664113402366638184e-01,-7.083047628402709961e-01,6.558852195739746094e+00
1.760561423965656281e+09,9.824847221374511719e+00,-7.413079142570495605e-01,-7.339261770248413086e-01,6.553699493408203125e+00
1.760561423986214161e+09,9.930533409118652344e+00,-8.187865018844604492e-01,-7.590392827987670898e-01,6.551114082336425781e+00
1.760561424005937099e+09,1.003424835205078125e+01,-8.988319635391235352e-01,-7.836042046546936035e-01,6.550413131713867188e+00
1.760561424026510477e+09,1.013595390319824219e+01,-9.814095497131347656e-01,-8.076695203781127930e-01,6.550701618194580078e+00
1.760561424046024561e+09,1.023560714721679688e+01,-1.066468596458435059e+00,-8.313341736793518066e-01,6.551463603973388672e+00
1.760561424066801548e+09,1.033317279815673828e+01,-1.153955698013305664e+00,-8.546590805053710938e-01,6.553472042083740234e+00
1.760561424085692644e+09,1.042862224578857422e+01,-1.243815898895263672e+00,-8.776905536651611328e-01,6.556095123291015625e+00
1.760561424106074810e+09,1.052192306518554688e+01,-1.335988402366638184e+00,-9.004871845245361328e-01,6.559364318847656250e+00
1.760561424125653982e+09,1.061305522918701172e+01,-1.430420756340026855e+00,-9.230458736419677734e-01,6.564363956451416016e+00
1.760561424146436691e+09,1.070200157165527344e+01,-1.527060627937316895e+00,-9.453723430633544922e-01,6.570035934448242188e+00
1.760561424165599823e+09,1.078873825073242188e+01,-1.625848531723022461e+00,-9.675110578536987305e-01,6.576394557952880859e+00
1.760561424186187983e+09,1.087324428558349609e+01,-1.726726412773132324e+00,-9.894934892654418945e-01,6.583447933197021484e+00
1.760561424205668688e+09,1.095550823211669922e+01,-1.829648971557617188e+00,-1.011283874511718750e+00,6.592626094818115234e+00
1.760561424226225138e+09,1.103552055358886719e+01,-1.934571027755737305e+00,-1.032869338989257812e+00,6.602441310882568359e+00
1.760561424245970249e+09,1.111326217651367188e+01,-2.041437149047851562e+00,-1.054294943809509277e+00,6.612897396087646484e+00
1.760561424267202854e+09,1.118872642517089844e+01,-2.150206804275512695e+00,-1.075525879859924316e+00,6.625668525695800781e+00
1.760561424285724640e+09,1.126190567016601562e+01,-2.260839700698852539e+00,-1.096552848815917969e+00,6.638983249664306641e+00
1.760561424306504726e+09,1.133278369903564453e+01,-2.373282194137573242e+00,-1.117431163787841797e+00,6.652847766876220703e+00
1.760561424325687885e+09,1.140136814117431641e+01,-2.487468957901000977e+00,-1.137884616851806641e+00,6.667264938354492188e+00
1.760561424346167088e+09,1.146787357330322266e+01,-2.603240489959716797e+00,-1.155176043510437012e+00,6.684179782867431641e+00
1.760561424365797997e+09,1.153234767913818359e+01,-2.720546960830688477e+00,-1.169946789741516113e+00,6.701519012451171875e+00
1.760561424386607885e+09,1.159484004974365234e+01,-2.839318513870239258e+00,-1.183007240295410156e+00,6.719291687011718750e+00
1.760561424405653238e+09,1.165542888641357422e+01,-2.959499597549438477e+00,-1.194891452789306641e+00,6.739644527435302734e+00
1.760561424426318645e+09,1.171420192718505859e+01,-3.081034898757934570e+00,-1.206006884574890137e+00,6.760293006896972656e+00
1.760561424446159601e+09,1.177123546600341797e+01,-3.203855276107788086e+00,-1.216705322265625000e+00,6.781255245208740234e+00
1.760561424466451883e+09,1.182661056518554688e+01,-3.327920913696289062e+00,-1.227164864540100098e+00,6.804866313934326172e+00
1.760561424485595942e+09,1.188053989410400391e+01,-3.453138828277587891e+00,-1.235759019851684570e+00,6.828649044036865234e+00
1.760561424506133556e+09,1.193322563171386719e+01,-3.579402923583984375e+00,-1.241599559783935547e+00,6.852630615234375000e+00
1.760561424525571585e+09,1.198477172851562500e+01,-3.706683635711669922e+00,-1.245570778846740723e+00,6.879327774047851562e+00
1.760561424546506882e+09,1.203530025482177734e+01,-3.834946632385253906e+00,-1.248345255851745605e+00,6.906080245971679688e+00
1.760561424566238165e+09,1.208493614196777344e+01,-3.964160442352294922e+00,-1.250415325164794922e+00,6.935543537139892578e+00
1.760561424586750984e+09,1.213366031646728516e+01,-4.094348907470703125e+00,-1.253874540328979492e+00,6.964931488037109375e+00
1.760561424606041670e+09,1.218142223358154297e+01,-4.225519657135009766e+00,-1.260024547576904297e+00,6.994292736053466797e+00
1.760561424626362324e+09,1.222826671600341797e+01,-4.357673645019531250e+00,-1.268157958984375000e+00,7.026456832885742188e+00
1.760561424645718098e+09,1.227419757843017578e+01,-4.490827083587646484e+00,-1.277706623077392578e+00,7.058461666107177734e+00
1.760561424666347027e+09,1.231918144226074219e+01,-4.624977588653564453e+00,-1.288258790969848633e+00,7.090364933013916016e+00
1.760561424685533285e+09,1.236318206787109375e+01,-4.760155677795410156e+00,-1.299439787864685059e+00,7.125171661376953125e+00
1.760561424706090212e+09,1.240615272521972656e+01,-4.896392345428466797e+00,-1.310974836349487305e+00,7.159743785858154297e+00
1.760561424725713253e+09,1.244804763793945312e+01,-5.033717632293701172e+00,-1.322652101516723633e+00,7.197228908538818359e+00
1.760561424746978045e+09,1.248882198333740234e+01,-5.172157764434814453e+00,-1.334331274032592773e+00,7.234360218048095703e+00
1.760561424765701294e+09,1.252843379974365234e+01,-5.311738014221191406e+00,-1.345907092094421387e+00,7.274430751800537109e+00
1.760561424786340952e+09,1.256691837310791016e+01,-5.452459335327148438e+00,-1.356471896171569824e+00,7.314041614532470703e+00
1.760561424806234837e+09,1.260438442230224609e+01,-5.594271659851074219e+00,-1.364684700965881348e+00,7.353281021118164062e+00
1.760561424825942278e+09,1.264091110229492188e+01,-5.737170696258544922e+00,-1.370404243469238281e+00,7.395627975463867188e+00
1.760561424845733166e+09,1.267654705047607422e+01,-5.881162643432617188e+00,-1.374355077743530273e+00,7.437489032745361328e+00
1.760561424866022825e+09,1.271136569976806641e+01,-6.026248455047607422e+00,-1.377112507820129395e+00,7.482498645782470703e+00
1.760561424885582685e+09,1.274545001983642578e+01,-6.172426700592041016e+00,-1.379129528999328613e+00,7.526920795440673828e+00
1.760561424906288385e+09,1.277887725830078125e+01,-6.319662570953369141e+00,-1.380786180496215820e+00,7.570840835571289062e+00
1.760561424925700665e+09,1.281171131134033203e+01,-6.467889308929443359e+00,-1.382385969161987305e+00,7.610683441162109375e+00
1.760561424945919275e+09,1.284385490417480469e+01,-6.617044448852539062e+00,-1.385875582695007324e+00,7.646827220916748047e+00
1.760561424965733767e+09,1.287518692016601562e+01,-6.767076015472412109e+00,-1.392459511756896973e+00,7.679615497589111328e+00
1.760561424986784458e+09,1.290567493438720703e+01,-6.917918682098388672e+00,-1.401419162750244141e+00,7.709359645843505859e+00
1.760561425005617380e+09,1.293524646759033203e+01,-7.069521427154541016e+00,-1.412149906158447266e+00,7.736342430114746094e+00
1.760561425026445627e+09,1.296395492553710938e+01,-7.221813678741455078e+00,-1.422390937805175781e+00,7.760820388793945312e+00
1.760561425045657635e+09,1.299185276031494141e+01,-7.374730587005615234e+00,-1.430644750595092773e+00,7.783025264739990234e+00
1.760561425066249609e+09,1.301888751983642578e+01,-7.528232097625732422e+00,-1.437410354614257812e+00,7.803169250488281250e+00
1.760561425085953951e+09,1.304504013061523438e+01,-7.682276248931884766e+00,-1.443101644515991211e+00,7.821442604064941406e+00
1.760561425106060028e+09,1.307031059265136719e+01,-7.836820125579833984e+00,-1.448050022125244141e+00,7.838019847869873047e+00
1.760561425125685930e+09,1.309471511840820312e+01,-7.991822719573974609e+00,-1.452512741088867188e+00,7.853057861328125000e+00
1.760561425146097898e+09,1.311827468872070312e+01,-8.147246360778808594e+00,-1.456683516502380371e+00,7.866699695587158203e+00
1.760561425165771008e+09,1.314103984832763672e+01,-8.303050994873046875e+00,-1.460385203361511230e+00,7.879075050354003906e+00
1.760561425186923027e+09,1.316329002380371094e+01,-8.459168434143066406e+00,-1.460924267768859863e+00,7.890301704406738281e+00
1.760561425205646992e+09,1.318510818481445312e+01,-8.615563392639160156e+00,-1.458914399147033691e+00,7.900485992431640625e+00
1.760561425226137638e+09,1.320659065246582031e+01,-8.772200584411621094e+00,-1.455109953880310059e+00,7.909724712371826172e+00
1.760561425245896339e+09,1.322785568237304688e+01,-8.929044723510742188e+00,-1.450093269348144531e+00,7.918106079101562500e+00
1.760561425266300917e+09,1.324902915954589844e+01,-9.086062431335449219e+00,-1.444303035736083984e+00,7.925708770751953125e+00
1.760561425285581112e+09,1.327023792266845703e+01,-9.243222236633300781e+00,-1.438062191009521484e+00,7.932605743408203125e+00
1.760561425305946350e+09,1.329159736633300781e+01,-9.400493621826171875e+00,-1.431601047515869141e+00,7.938862800598144531e+00
1.760561425325909853e+09,1.331329441070556641e+01,-9.557839393615722656e+00,-1.424151897430419922e+00,7.944538593292236328e+00
1.760561425346472740e+09,1.333558368682861328e+01,-9.715210914611816406e+00,-1.414302229881286621e+00,7.949687480926513672e+00
1.760561425365979433e+09,1.335866260528564453e+01,-9.872569084167480469e+00,-1.401927113533020020e+00,7.954358577728271484e+00
1.760561425386085749e+09,1.338267612457275391e+01,-1.002987575531005859e+01,-1.387780547142028809e+00,7.958595752716064453e+00
1.760561425405818224e+09,1.340778350830078125e+01,-1.018709468841552734e+01,-1.372441530227661133e+00,7.962440013885498047e+00
1.760561425425990343e+09,1.343414974212646484e+01,-1.034418106079101562e+01,-1.356345772743225098e+00,7.965926647186279297e+00
1.760561425445763111e+09,1.346192932128906250e+01,-1.050109004974365234e+01,-1.339813828468322754e+00,7.969089984893798828e+00
1.760561425466057777e+09,1.349111175537109375e+01,-1.065780735015869141e+01,-1.324940562248229980e+00,7.971959590911865234e+00
1.760561425485575676e+09,1.352165031433105469e+01,-1.081427764892578125e+01,-1.312991499900817871e+00,7.970467090606689453e+00
1.760561425506874084e+09,1.355352687835693359e+01,-1.097012710571289062e+01,-1.302590727806091309e+00,7.938798427581787109e+00
1.760561425525955200e+09,1.358668994903564453e+01,-1.112501335144042969e+01,-1.292764782905578613e+00,7.902875900268554688e+00
1.760561425546319246e+09,1.362109184265136719e+01,-1.127870368957519531e+01,-1.282931685447692871e+00,7.849370479583740234e+00
1.760561425566312313e+09,1.365666389465332031e+01,-1.143091011047363281e+01,-1.272555589675903320e+00,7.784796237945556641e+00
1.760561425585936546e+09,1.369340324401855469e+01,-1.158159160614013672e+01,-1.261747956275939941e+00,7.727871894836425781e+00
1.760561425605500937e+09,1.373130989074707031e+01,-1.173070907592773438e+01,-1.250550985336303711e+00,7.661699771881103516e+00
1.760561425626391172e+09,1.377039527893066406e+01,-1.187824630737304688e+01,-1.239087343215942383e+00,7.604036331176757812e+00
1.760561425645695210e+09,1.381083869934082031e+01,-1.202412796020507812e+01,-1.225244998931884766e+00,7.537971019744873047e+00
1.760561425666142941e+09,1.385282135009765625e+01,-1.216829490661621094e+01,-1.207833051681518555e+00,7.480659961700439453e+00
1.760561425685954809e+09,1.389639568328857422e+01,-1.231070232391357422e+01,-1.187702059745788574e+00,7.415367603302001953e+00
1.760561425706239700e+09,1.394149208068847656e+01,-1.245136165618896484e+01,-1.167678117752075195e+00,7.358823299407958984e+00
1.760561425725579262e+09,1.398804855346679688e+01,-1.259026527404785156e+01,-1.149511694908142090e+00,7.294532299041748047e+00
1.760561425746216536e+09,1.403614330291748047e+01,-1.272737884521484375e+01,-1.132761716842651367e+00,7.238883495330810547e+00
1.760561425765732527e+09,1.408580112457275391e+01,-1.286266326904296875e+01,-1.117031216621398926e+00,7.175637245178222656e+00
1.760561425786024809e+09,1.413702583312988281e+01,-1.299610519409179688e+01,-1.102142214775085449e+00,7.120903015136718750e+00
1.760561425805709124e+09,1.418984794616699219e+01,-1.312780761718750000e+01,-1.088290333747863770e+00,7.071848869323730469e+00
1.760561425826081991e+09,1.424420356750488281e+01,-1.325771141052246094e+01,-1.075081229209899902e+00,7.013140678405761719e+00
1.760561425846102238e+09,1.430000114440917969e+01,-1.338580131530761719e+01,-1.062712311744689941e+00,6.961181640625000000e+00
1.760561425866545677e+09,1.435689830780029297e+01,-1.351215744018554688e+01,-1.054152011871337891e+00,6.899734020233154297e+00
1.760561425885921478e+09,1.441478538513183594e+01,-1.363679504394531250e+01,-1.048694491386413574e+00,6.845589637756347656e+00
1.760561425907426596e+09,1.447358894348144531e+01,-1.375985622406005859e+01,-1.045809388160705566e+00,6.796001434326171875e+00
1.760561425925756693e+09,1.453322124481201172e+01,-1.388152027130126953e+01,-1.045108318328857422e+00,6.746487617492675781e+00
1.760561425946349144e+09,1.459335422515869141e+01,-1.400156784057617188e+01,-1.045536994934082031e+00,6.683446407318115234e+00
1.760561425965950251e+09,1.465382480621337891e+01,-1.412007808685302734e+01,-1.046915173530578613e+00,6.624330997467041016e+00
1.760561425986622095e+09,1.471440124511718750e+01,-1.423698997497558594e+01,-1.048931360244750977e+00,6.547085285186767578e+00
1.760561426006029606e+09,1.477488136291503906e+01,-1.435227966308593750e+01,-1.051447033882141113e+00,6.475709438323974609e+00
1.760561426026547909e+09,1.483517169952392578e+01,-1.446608924865722656e+01,-1.054530143737792969e+00,6.407186985015869141e+00
1.760561426045935631e+09,1.489521980285644531e+01,-1.457861137390136719e+01,-1.058210849761962891e+00,6.336588382720947266e+00
1.760561426066992760e+09,1.495465564727783203e+01,-1.468944644927978516e+01,-1.062239885330200195e+00,6.244767189025878906e+00
1.760561426085944891e+09,1.501337814331054688e+01,-1.479864883422851562e+01,-1.066649913787841797e+00,6.158789634704589844e+00
1.760561426106584311e+09,1.507133388519287109e+01,-1.490634536743164062e+01,-1.071469664573669434e+00,6.075616359710693359e+00
1.760561426126422405e+09,1.512831306457519531e+01,-1.501234245300292969e+01,-1.076717495918273926e+00,5.964375972747802734e+00
1.760561426146632433e+09,1.518415355682373047e+01,-1.511652755737304688e+01,-1.082404017448425293e+00,5.861639976501464844e+00
1.760561426166275978e+09,1.523885345458984375e+01,-1.521906089782714844e+01,-1.088484287261962891e+00,5.764576435089111328e+00
1.760561426186580658e+09,1.529239273071289062e+01,-1.532005691528320312e+01,-1.094901204109191895e+00,5.671297073364257812e+00
1.760561426206039667e+09,1.534474468231201172e+01,-1.541960048675537109e+01,-1.101598262786865234e+00,5.580522060394287109e+00
1.760561426226974249e+09,1.539573764801025391e+01,-1.551748085021972656e+01,-1.108713626861572266e+00,5.462395191192626953e+00
1.760561426245848894e+09,1.544527721405029297e+01,-1.561361789703369141e+01,-1.116221785545349121e+00,5.358175754547119141e+00
1.760561426266192675e+09,1.549343299865722656e+01,-1.570824813842773438e+01,-1.123882412910461426e+00,5.264599800109863281e+00
1.760561426288023949e+09,1.554009056091308594e+01,-1.580163288116455078e+01,-1.133677840232849121e+00,5.179034233093261719e+00
1.760561426306554556e+09,1.558514118194580078e+01,-1.589396572113037109e+01,-1.146507024765014648e+00,5.098938941955566406e+00
1.760561426325819969e+09,1.562858676910400391e+01,-1.598533535003662109e+01,-1.161211133003234863e+00,5.022433280944824219e+00
1.760561426346809864e+09,1.567039108276367188e+01,-1.607581138610839844e+01,-1.177066922187805176e+00,4.948306083679199219e+00
1.760561426366051197e+09,1.571050357818603516e+01,-1.616544914245605469e+01,-1.193614721298217773e+00,4.875778675079345703e+00
1.760561426386452675e+09,1.574887275695800781e+01,-1.625427818298339844e+01,-1.210556745529174805e+00,4.804357528686523438e+00
1.760561426405942917e+09,1.578542613983154297e+01,-1.634233665466308594e+01,-1.228057026863098145e+00,4.733736515045166016e+00
1.760561426425983191e+09,1.581986808776855469e+01,-1.642973136901855469e+01,-1.248939633369445801e+00,4.663733959197998047e+00
1.760561426445524931e+09,1.585215568542480469e+01,-1.651645851135253906e+01,-1.272098302841186523e+00,4.594248771667480469e+00
1.760561426466383696e+09,1.588224124908447266e+01,-1.660250663757324219e+01,-1.296582460403442383e+00,4.525234222412109375e+00
1.760561426485524893e+09,1.591014289855957031e+01,-1.668810081481933594e+01,-1.321175217628479004e+00,4.479976177215576172e+00
1.760561426506189346e+09,1.593585681915283203e+01,-1.677334785461425781e+01,-1.345485210418701172e+00,4.427000045776367188e+00
1.760561426525693178e+09,1.595932388305664062e+01,-1.685808753967285156e+01,-1.369823336601257324e+00,4.369132518768310547e+00
1.760561426546030760e+09,1.598051452636718750e+01,-1.694219779968261719e+01,-1.394254088401794434e+00,4.308246135711669922e+00
1.760561426565484524e+09,1.599941825866699219e+01,-1.702558517456054688e+01,-1.418728113174438477e+00,4.245588779449462891e+00
1.760561426586091042e+09,1.601604461669921875e+01,-1.710816955566406250e+01,-1.443152666091918945e+00,4.181994438171386719e+00
1.760561426605827093e+09,1.603040885925292969e+01,-1.718988037109375000e+01,-1.467426538467407227e+00,4.118025779724121094e+00
1.760561426626175642e+09,1.604254913330078125e+01,-1.727065849304199219e+01,-1.491457223892211914e+00,4.054062843322753906e+00
1.760561426645538568e+09,1.605252647399902344e+01,-1.735067749023437500e+01,-1.514578938484191895e+00,4.012117862701416016e+00
