# x,y,theta,velocity
-2.749714814126491547e-02,-1.927009671926498413e-01,3.104305267333984375e+00,2.000000000000000000e+00
-1.269267350435256958e-01,-1.889862269163131714e-01,3.104239702224731445e+00,2.000000000000000000e+00
-2.263566106557846069e-01,-1.852787733078002930e-01,3.104452371597290039e+00,2.000000000000000000e+00
-3.257877528667449951e-01,-1.816062778234481812e-01,3.104942560195922852e+00,2.000000000000000000e+00
-4.252209067344665527e-01,-1.779877394437789917e-01,3.105451583862304688e+00,2.000000000000000000e+00
-5.246541500091552734e-01,-1.743723750114440918e-01,3.104649305343627930e+00,2.000000000000000000e+00
-6.240795850753784180e-01,-1.705494970083236694e-01,3.101184129714965820e+00,2.000000000000000000e+00
-7.234848141670227051e-01,-1.662358641624450684e-01,3.094776153564453125e+00,2.000000000000000000e+00
-8.228527903556823730e-01,-1.611390709877014160e-01,3.085423946380615234e+00,2.000000000000000000e+00
-9.221595525741577148e-01,-1.549669951200485229e-01,3.073126554489135742e+00,2.000000000000000000e+00
-1.021371483802795410e+00,-1.474280059337615967e-01,3.057881593704223633e+00,2.000000000000000000e+00
-1.120443105697631836e+00,-1.382313519716262817e-01,3.039685249328613281e+00,2.000000000000000000e+00
-1.219314217567443848e+00,-1.270874887704849243e-01,3.018531560897827148e+00,2.000000000000000000e+00
-1.317907214164733887e+00,-1.137086898088455200e-01,2.994410991668701172e+00,2.000000000000000000e+00
-1.416124582290649414e+00,-9.780971705913543701e-02,2.967309474945068359e+00,2.000000000000000000e+00
-1.513846516609191895e+00,-7.910876721143722534e-02,2.937207698822021484e+00,2.000000000000000000e+00
-1.610927820205688477e+00,-5.732857435941696167e-02,2.904078483581542969e+00,2.000000000000000000e+00
-1.707195162773132324e+00,-3.219777345657348633e-02,2.867886066436767578e+00,2.000000000000000000e+00
-1.802444815635681152e+00,-3.452595556154847145e-03,2.828583717346191406e+00,2.000000000000000000e+00
-1.896438956260681152e+00,2.916109561920166016e-02,2.786111354827880859e+00,1.979170680046081543e+00
-1.988903284072875977e+00,6.588534265756607056e-02,2.740393400192260742e+00,1.957600116729736328e+00
-2.079523324966430664e+00,1.069471165537834167e-01,2.691334962844848633e+00,1.938598155975341797e+00
-2.167941331863403320e+00,1.525546759366989136e-01,2.638818979263305664e+00,1.922426104545593262e+00
-2.253752231597900391e+00,2.028932124376296997e-01,2.582702159881591797e+00,1.909422755241394043e+00
-2.336499691009521484e+00,2.581194937229156494e-01,2.522806644439697266e+00,1.900028109550476074e+00
-2.415672540664672852e+00,3.183552622795104980e-01,2.458922147750854492e+00,1.894784212112426758e+00
-2.490709066390991211e+00,3.836683630943298340e-01,2.391213893890380859e+00,1.893377900123596191e+00
-2.561078071594238281e+00,4.539841115474700928e-01,2.322034835815429688e+00,1.892040491104125977e+00
-2.626455545425415039e+00,5.289645195007324219e-01,2.254015922546386719e+00,1.890028119087219238e+00
-2.686650037765502930e+00,6.081669330596923828e-01,2.187568902969360352e+00,1.885917901992797852e+00
-2.741508960723876953e+00,6.911554336547851562e-01,2.122410535812377930e+00,1.879863977432250977e+00
-2.790893793106079102e+00,7.775140404701232910e-01,2.058268547058105469e+00,1.872026324272155762e+00
-2.834677457809448242e+00,8.668433427810668945e-01,1.994883775711059570e+00,1.862560510635375977e+00
-2.872740030288696289e+00,9.587565064430236816e-01,1.932004094123840332e+00,1.851621031761169434e+00
-2.904966115951538086e+00,1.052875161170959473e+00,1.869382143020629883e+00,1.839364171028137207e+00
-2.931241273880004883e+00,1.148825287818908691e+00,1.806771278381347656e+00,1.825949668884277344e+00
-2.951452016830444336e+00,1.246233344078063965e+00,1.743923544883728027e+00,1.811543107032775879e+00
-2.965482711791992188e+00,1.344721436500549316e+00,1.680585980415344238e+00,1.796318769454956055e+00
-2.973216533660888672e+00,1.443902373313903809e+00,1.616498470306396484e+00,1.780462384223937988e+00
-2.974534273147583008e+00,1.543375015258789062e+00,1.551390528678894043e+00,1.764174461364746094e+00
-2.969314813613891602e+00,1.642718791961669922e+00,1.484978318214416504e+00,1.747922420501708984e+00
-2.957437515258789062e+00,1.741487145423889160e+00,1.416961073875427246e+00,1.732053756713867188e+00
-2.938783645629882812e+00,1.839201211929321289e+00,1.347017288208007812e+00,1.716922640800476074e+00
-2.913240432739257812e+00,1.935343384742736816e+00,1.274801254272460938e+00,1.702943444252014160e+00
-2.880705833435058594e+00,2.029348373413085938e+00,1.199936509132385254e+00,1.690613627433776855e+00
-2.841096162796020508e+00,2.120595932006835938e+00,1.122017264366149902e+00,1.680515408515930176e+00
-2.794353961944580078e+00,2.208401441574096680e+00,1.040580272674560547e+00,1.673411726951599121e+00
-2.740462541580200195e+00,2.292006254196166992e+00,9.551848769187927246e-01,1.670025348663330078e+00
-2.679484844207763672e+00,2.370588779449462891e+00,8.660013675689697266e-01,1.670025348663330078e+00
-2.611719846725463867e+00,2.443400382995605469e+00,7.772997021675109863e-01,1.670025348663330078e+00
-2.537934541702270508e+00,2.510108947753906250e+00,6.938647627830505371e-01,1.674356818199157715e+00
-2.459022045135498047e+00,2.570672273635864258e+00,6.162366867065429688e-01,1.684267640113830566e+00
-2.375793218612670898e+00,2.625158071517944336e+00,5.438885688781738281e-01,1.698585748672485352e+00
-2.288961887359619141e+00,2.673702955245971680e+00,4.764650166034698486e-01,1.716577529907226562e+00
-2.199153900146484375e+00,2.716497182846069336e+00,4.136286377906799316e-01,1.737691640853881836e+00
-2.106914520263671875e+00,2.753767728805541992e+00,3.550677001476287842e-01,1.761420488357543945e+00
-2.012714624404907227e+00,2.785768032073974609e+00,3.005399107933044434e-01,1.787410974502563477e+00
-1.916961431503295898e+00,2.812772512435913086e+00,2.498511672019958496e-01,1.815407752990722656e+00
-1.820002555847167969e+00,2.835071086883544922e+00,2.028495222330093384e-01,1.845236301422119141e+00
-1.722133636474609375e+00,2.852965116500854492e+00,1.594177633523941040e-01,1.876786947250366211e+00
-1.623602867126464844e+00,2.866765499114990234e+00,1.194681525230407715e-01,1.910001993179321289e+00
-1.524615406990051270e+00,2.876789331436157227e+00,8.293846994638442993e-02,1.944868087768554688e+00
-1.425337910652160645e+00,2.883359432220458984e+00,4.978810623288154602e-02,1.981409430503845215e+00
-1.325901985168457031e+00,2.886802434921264648e+00,1.999466679990291595e-02,2.000000000000000000e+00
-1.226407766342163086e+00,2.887448549270629883e+00,-6.449051201343536377e-03,2.000000000000000000e+00
-1.126927495002746582e+00,2.885630369186401367e+00,-2.953802421689033508e-02,2.000000000000000000e+00
-1.027508378028869629e+00,2.881683588027954102e+00,-4.925780743360519409e-02,2.000000000000000000e+00
-9.281760454177856445e-01,2.875945091247558594e+00,-6.558723002672195435e-02,2.000000000000000000e+00
-8.289378881454467773e-01,2.868754625320434570e+00,-7.850106805562973022e-02,2.000000000000000000e+00
-7.297862768173217773e-01,2.860453605651855469e+00,-8.797253668308258057e-02,2.000000000000000000e+00
-6.307017207145690918e-01,2.851385593414306641e+00,-9.397577494382858276e-02,2.000000000000000000e+00
-5.316566228866577148e-01,2.841895580291748047e+00,-9.648779034614562988e-02,2.000000000000000000e+00
-4.326187968254089355e-01,2.832330465316772461e+00,-9.549098461866378784e-02,2.000000000000000000e+00
-3.335551023483276367e-01,2.823038339614868164e+00,-9.097339957952499390e-02,2.000000000000000000e+00
-2.344352453947067261e-01,2.814368486404418945e+00,-8.293133229017257690e-02,2.000000000000000000e+00
-1.352356225252151489e-01,2.806669473648071289e+00,-7.140507549047470093e-02,2.000000000000000000e+00
-3.594313561916351318e-02,2.800282955169677734e+00,-5.650838837027549744e-02,2.000000000000000000e+00
6.343878060579299927e-02,2.795480728149414062e+00,-4.010539129376411438e-02,2.000000000000000000e+00
1.628851890563964844e-01,2.792269468307495117e+00,-2.476391196250915527e-02,2.000000000000000000e+00
2.623678147792816162e-01,2.790493488311767578e+00,-1.123703643679618835e-02,2.000000000000000000e+00
3.618651032447814941e-01,2.789974212646484375e+00,5.062941345386207104e-04,2.000000000000000000e+00
4.613623321056365967e-01,2.790535211563110352e+00,1.047400012612342834e-02,2.000000000000000000e+00
5.608505010604858398e-01,2.791999816894531250e+00,1.867049559950828552e-02,2.000000000000000000e+00
6.603254079818725586e-01,2.794191837310791016e+00,2.509791404008865356e-02,2.000000000000000000e+00
7.597866654396057129e-01,2.796935081481933594e+00,2.975522913038730621e-02,2.000000000000000000e+00
8.592369556427001953e-01,2.800053358078002930e+00,3.263922035694122314e-02,2.000000000000000000e+00
9.586807489395141602e-01,2.803369998931884766e+00,3.374435007572174072e-02,2.000000000000000000e+00
1.058123826980590820e+00,2.806707859039306641e+00,3.306328877806663513e-02,2.000000000000000000e+00
1.157572031021118164e+00,2.809888839721679688e+00,3.058718144893646240e-02,2.000000000000000000e+00
1.257030367851257324e+00,2.812733888626098633e+00,2.630570717155933380e-02,2.000000000000000000e+00
1.327488303184509277e+00,2.783054828643798828e+00,-3.485391288995742798e-02,2.000000000000000000e+00
1.427811741828918457e+00,2.779407024383544922e+00,-3.816106915473937988e-02,2.000000000000000000e+00
1.528121352195739746e+00,2.775394678115844727e+00,-4.204709455370903015e-02,2.000000000000000000e+00
1.628413438796997070e+00,2.770967245101928711e+00,-4.643799737095832825e-02,2.000000000000000000e+00
1.728683948516845703e+00,2.766074180603027344e+00,-5.133695900440216064e-02,2.000000000000000000e+00
1.828927874565124512e+00,2.760664463043212891e+00,-5.675602331757545471e-02,2.000000000000000000e+00
1.929139494895935059e+00,2.754684925079345703e+00,-6.272085756063461304e-02,2.000000000000000000e+00
2.029314041137695312e+00,2.748079538345336914e+00,-6.925404816865921021e-02,2.000000000000000000e+00
2.129443407058715820e+00,2.740790843963623047e+00,-7.637307792901992798e-02,2.000000000000000000e+00
2.229516267776489258e+00,2.732759714126586914e+00,-8.411772549152374268e-02,2.000000000000000000e+00
2.329519271850585938e+00,2.723921298980712891e+00,-9.255897253751754761e-02,2.000000000000000000e+00
2.429438591003417969e+00,2.714202165603637695e+00,-1.017926782369613647e-01,2.000000000000000000e+00
2.529260635375976562e+00,2.703518390655517578e+00,-1.119210869073867798e-01,2.000000000000000000e+00
2.628969430923461914e+00,2.691776752471923828e+00,-1.230365410447120667e-01,2.000000000000000000e+00
2.728544712066650391e+00,2.678874731063842773e+00,-1.352187693119049072e-01,2.000000000000000000e+00
2.827958345413208008e+00,2.664704322814941406e+00,-1.485494077205657959e-01,2.000000000000000000e+00
2.927171945571899414e+00,2.649149894714355469e+00,-1.631546616554260254e-01,2.000000000000000000e+00
3.026136636734008789e+00,2.632080793380737305e+00,-1.792450547218322754e-01,2.000000000000000000e+00
3.124792337417602539e+00,2.613343000411987305e+00,-1.971254050731658936e-01,2.000000000000000000e+00
3.223066806793212891e+00,2.592750072479248047e+00,-2.171933948993682861e-01,2.000000000000000000e+00
3.320875644683837891e+00,2.570072412490844727e+00,-2.399339079856872559e-01,2.000000000000000000e+00
3.418118715286254883e+00,2.545031309127807617e+00,-2.659081816673278809e-01,2.000000000000000000e+00
3.514663457870483398e+00,2.517292976379394531e+00,-2.957520782947540283e-01,2.000000000000000000e+00
3.610322475433349609e+00,2.486469030380249023e+00,-3.301931321620941162e-01,2.000000000000000000e+00
3.704832077026367188e+00,2.452114343643188477e+00,-3.700934052467346191e-01,1.963595867156982422e+00
3.797825098037719727e+00,2.413723468780517578e+00,-4.166426360607147217e-01,1.888352990150451660e+00
3.888785362243652344e+00,2.370705604553222656e+00,-4.717406034469604492e-01,1.816285490989685059e+00
3.976970434188842773e+00,2.322331190109252930e+00,-5.382950901985168457e-01,1.750308036804199219e+00
4.061332225799560547e+00,2.267675399780273438e+00,-6.201843619346618652e-01,1.693994402885437012e+00
4.140429019927978516e+00,2.205591201782226562e+00,-7.211650609970092773e-01,1.650509953498840332e+00
4.212294101715087891e+00,2.134959936141967773e+00,-8.434059023857116699e-01,1.622424960136413574e+00
4.274256706237792969e+00,2.055261850357055664e+00,-9.874300956726074219e-01,1.611051559448242188e+00
4.323113918304443359e+00,1.967048645019531250e+00,-1.149755239486694336e+00,1.611051559448242188e+00
4.356335163116455078e+00,1.871977567672729492e+00,-1.317456007003784180e+00,1.611051559448242188e+00
4.373461723327636719e+00,1.772582411766052246e+00,-1.472790956497192383e+00,1.614378690719604492e+00
4.376030445098876953e+00,1.671663522720336914e+00,-1.606463432312011719e+00,1.633311510086059570e+00
4.366283416748046875e+00,1.571402907371520996e+00,-1.719637870788574219e+00,1.668661236763000488e+00
4.346229076385498047e+00,1.472922205924987793e+00,-1.816183924674987793e+00,1.715760350227355957e+00
4.317507743835449219e+00,1.376639723777770996e+00,-1.899044156074523926e+00,1.770756244659423828e+00
4.281465530395507812e+00,1.282759428024291992e+00,-1.970865726470947266e+00,1.831108331680297852e+00
4.239197731018066406e+00,1.191454887390136719e+00,-2.034115552902221680e+00,1.894611001014709473e+00
4.191584587097167969e+00,1.102850317955017090e+00,-2.090743303298950195e+00,1.959438323974609375e+00
4.139318466186523438e+00,1.016990065574645996e+00,-2.142139911651611328e+00,2.000000000000000000e+00
4.082937717437744141e+00,9.338459372520446777e-01,-2.189307451248168945e+00,2.000000000000000000e+00
4.022864818572998047e+00,8.533545732498168945e-01,-2.233038902282714844e+00,2.000000000000000000e+00
3.959441184997558594e+00,7.754572033882141113e-01,-2.274018287658691406e+00,2.000000000000000000e+00
3.892953634262084961e+00,7.001233100891113281e-01,-2.312840461730957031e+00,2.000000000000000000e+00
3.823647022247314453e+00,6.273471117019653320e-01,-2.349987506866455078e+00,2.000000000000000000e+00
3.751732587814331055e+00,5.571381449699401855e-01,-2.385814189910888672e+00,2.000000000000000000e+00
3.677395105361938477e+00,4.895120561122894287e-01,-2.420569181442260742e+00,2.000000000000000000e+00
3.600798606872558594e+00,4.244852066040039062e-01,-2.454453945159912109e+00,2.000000000000000000e+00
3.522085905075073242e+00,3.620751798152923584e-01,-2.487662553787231445e+00,2.000000000000000000e+00
3.441379070281982422e+00,3.023022413253784180e-01,-2.520388364791870117e+00,2.000000000000000000e+00
3.358777999877929688e+00,2.451908737421035767e-01,-2.552813291549682617e+00,2.000000000000000000e+00
3.274363994598388672e+00,1.907712668180465698e-01,-2.585084915161132812e+00,2.000000000000000000e+00
3.188210248947143555e+00,1.390815973281860352e-01,-2.617305755615234375e+00,2.000000000000000000e+00
3.100394248962402344e+00,9.017012268304824829e-02,-2.649544954299926758e+00,2.000000000000000000e+00
3.011007785797119141e+00,4.409723356366157532e-02,-2.681859493255615234e+00,2.000000000000000000e+00
2.920164346694946289e+00,9.353726636618375778e-04,-2.714318513870239258e+00,2.000000000000000000e+00
2.827988147735595703e+00,-3.923635557293891907e-02,-2.747004270553588867e+00,2.000000000000000000e+00
2.734598636627197266e+00,-7.633956521749496460e-02,-2.779990673065185547e+00,2.000000000000000000e+00
2.640094280242919922e+00,-1.103040054440498352e-01,-2.813313722610473633e+00,2.000000000000000000e+00
2.544538736343383789e+00,-1.410745233297348022e-01,-2.846968650817871094e+00,2.000000000000000000e+00
2.447992563247680664e+00,-1.685983687639236450e-01,-2.880971193313598633e+00,2.000000000000000000e+00
2.350564956665039062e+00,-1.928047686815261841e-01,-2.915349960327148438e+00,2.000000000000000000e+00
2.252357006072998047e+00,-2.136304378509521484e-01,-2.950100898742675781e+00,2.000000000000000000e+00
2.153482675552368164e+00,-2.310125976800918579e-01,-2.987376451492309570e+00,2.000000000000000000e+00
2.061347723007202148e+00,-2.230275869369506836e-01,-3.107728719711303711e+00,2.000000000000000000e+00
1.961890101432800293e+00,-2.258826196193695068e-01,-3.117557764053344727e+00,2.000000000000000000e+00
1.862411856651306152e+00,-2.279008030891418457e-01,-3.124646663665771484e+00,2.000000000000000000e+00
1.762922883033752441e+00,-2.293062210083007812e-01,-3.130179882049560547e+00,2.000000000000000000e+00
1.663427948951721191e+00,-2.301872372627258301e-01,-3.135249376296997070e+00,2.000000000000000000e+00
1.563929915428161621e+00,-2.305777668952941895e-01,-3.140039682388305664e+00,2.000000000000000000e+00
1.464431047439575195e+00,-2.305054962635040283e-01,3.138633251190185547e+00,2.000000000000000000e+00
1.364933490753173828e+00,-2.299981117248535156e-01,3.134399414062500000e+00,2.000000000000000000e+00
1.265438795089721680e+00,-2.290832847356796265e-01,3.130443334579467773e+00,2.000000000000000000e+00
1.165948271751403809e+00,-2.277886867523193359e-01,3.126765251159667969e+00,2.000000000000000000e+00
1.066462993621826172e+00,-2.261420041322708130e-01,3.123365402221679688e+00,2.000000000000000000e+00
9.669835567474365234e-01,-2.241709083318710327e-01,3.120243072509765625e+00,2.000000000000000000e+00
8.675104975700378418e-01,-2.219030559062957764e-01,3.117398977279663086e+00,2.000000000000000000e+00
7.680439352989196777e-01,-2.193661034107208252e-01,3.114832639694213867e+00,2.000000000000000000e+00
6.685837507247924805e-01,-2.165877223014831543e-01,3.112544298171997070e+00,2.000000000000000000e+00
5.691298246383666992e-01,-2.135955542325973511e-01,3.110533475875854492e+00,2.000000000000000000e+00
4.696816802024841309e-01,-2.104172408580780029e-01,3.108800888061523438e+00,2.000000000000000000e+00
3.702386915683746338e-01,-2.070804387331008911e-01,3.107345819473266602e+00,2.000000000000000000e+00
2.708001732826232910e-01,-2.036127597093582153e-01,3.106168985366821289e+00,2.000000000000000000e+00
1.713653206825256348e-01,-2.000418752431869507e-01,3.105269908905029297e+00,2.000000000000000000e+00
7.193320244550704956e-02,-1.963953971862792969e-01,3.104648590087890625e+00,2.000000000000000000e+00
