# time,x,y,theta,velocity
1.761490693367192507e+09,3.118472576141357422e+00,2.559035301208496094e+00,-3.951599299907684326e-01,1.959537148475646973e+00
1.761490693386723042e+09,3.152472496032714844e+00,2.544854402542114258e+00,-4.203639328479766846e-01,1.957997560501098633e+00
1.761490693407388926e+09,3.192545413970947266e+00,2.528024673461914062e+00,-4.465219676494598389e-01,1.954342603683471680e+00
1.761490693427151680e+09,3.223400831222534180e+00,2.512784481048583984e+00,-4.625968933105468750e-01,1.948035955429077148e+00
1.761490693447537184e+09,3.264911890029907227e+00,2.495464563369750977e+00,-4.948161244392395020e-01,1.943307876586914062e+00
1.761490693466759205e+09,3.288091897964477539e+00,2.476829051971435547e+00,-5.093343853950500488e-01,1.937245726585388184e+00
1.761490693487912655e+09,3.326249837875366211e+00,2.461758375167846680e+00,-5.308841466903686523e-01,1.933844447135925293e+00
1.761490693506631136e+09,3.356734991073608398e+00,2.454678058624267578e+00,-5.714468359947204590e-01,1.927240729331970215e+00
1.761490693527802706e+09,3.401803255081176758e+00,2.438583850860595703e+00,-5.922088623046875000e-01,1.923542261123657227e+00
1.761490693546936750e+09,3.429837226867675781e+00,2.420930147171020508e+00,-6.166352033615112305e-01,1.916704297065734863e+00
1.761490693567906857e+09,3.451105833053588867e+00,2.406212329864501953e+00,-6.325227022171020508e-01,1.908524036407470703e+00
1.761490693586631298e+09,3.487892389297485352e+00,2.371427297592163086e+00,-6.596773266792297363e-01,1.905142903327941895e+00
1.761490693607816696e+09,3.508195400238037109e+00,2.349224567413330078e+00,-6.773915290832519531e-01,1.896996736526489258e+00
1.761490693626814127e+09,3.529326915740966797e+00,2.328646898269653320e+00,-6.965587139129638672e-01,1.887250542640686035e+00
1.761490693647789717e+09,3.554061412811279297e+00,2.321613073348999023e+00,-7.243122458457946777e-01,1.877000689506530762e+00
1.761490693666960955e+09,3.576433420181274414e+00,2.307384014129638672e+00,-7.495394349098205566e-01,1.871618747711181641e+00
1.761490693688455105e+09,3.601488351821899414e+00,2.284832715988159180e+00,-7.697603106498718262e-01,1.868360400199890137e+00
1.761490693706848621e+09,3.633407831192016602e+00,2.244010210037231445e+00,-7.931820750236511230e-01,1.864062070846557617e+00
1.761490693727528334e+09,3.661097288131713867e+00,2.217123985290527344e+00,-8.132276535034179688e-01,1.857941627502441406e+00
1.761490693746986151e+09,3.683840036392211914e+00,2.178918600082397461e+00,-8.328606486320495605e-01,1.853765845298767090e+00
1.761490693767830372e+09,3.697308540344238281e+00,2.153971433639526367e+00,-8.444566130638122559e-01,1.849961161613464355e+00
1.761490693787027121e+09,3.718619585037231445e+00,2.115808963775634766e+00,-8.763931989669799805e-01,1.838972091674804688e+00
1.761490693808058023e+09,3.743302106857299805e+00,2.089303255081176758e+00,-8.963772654533386230e-01,1.827563285827636719e+00
1.761490693827345133e+09,3.761337995529174805e+00,2.055625200271606445e+00,-9.188382029533386230e-01,1.819855332374572754e+00
1.761490693847270727e+09,3.824424028396606445e+00,2.011173248291015625e+00,-9.711076021194458008e-01,1.811017870903015137e+00
1.761490693867266417e+09,3.865062952041625977e+00,1.954691171646118164e+00,-9.982100129127502441e-01,1.803960442543029785e+00
1.761490693887657166e+09,3.891103029251098633e+00,1.931010723114013672e+00,-1.016294240951538086e+00,1.802101731300354004e+00
1.761490693906881571e+09,3.910128593444824219e+00,1.901749730110168457e+00,-1.045448303222656250e+00,1.796683311462402344e+00
1.761490693928599358e+09,3.926289796829223633e+00,1.867676138877868652e+00,-1.064990401268005371e+00,1.794459104537963867e+00
1.761490693946827888e+09,3.937162160873413086e+00,1.847434997558593750e+00,-1.074967861175537109e+00,1.787255525588989258e+00
1.761490693967256784e+09,3.940264940261840820e+00,1.828117370605468750e+00,-1.087528347969055176e+00,1.781100869178771973e+00
1.761490693986989975e+09,3.961349725723266602e+00,1.801735520362854004e+00,-1.117551922798156738e+00,1.778986692428588867e+00
1.761490694007945061e+09,3.977165699005126953e+00,1.767397046089172363e+00,-1.150700807571411133e+00,1.774622917175292969e+00
1.761490694026958227e+09,3.983921289443969727e+00,1.742225050926208496e+00,-1.169693708419799805e+00,1.768483638763427734e+00
1.761490694047880888e+09,4.013033390045166016e+00,1.687630891799926758e+00,-1.198624968528747559e+00,1.766404986381530762e+00
1.761490694067052364e+09,4.028554916381835938e+00,1.638971567153930664e+00,-1.226743459701538086e+00,1.763218522071838379e+00
1.761490694087696075e+09,4.036056995391845703e+00,1.615365266799926758e+00,-1.243046283721923828e+00,1.763251185417175293e+00
1.761490694106984854e+09,4.049042224884033203e+00,1.581472992897033691e+00,-1.278085827827453613e+00,1.760157823562622070e+00
1.761490694127448559e+09,4.055845737457275391e+00,1.544382452964782715e+00,-1.300975203514099121e+00,1.759716033935546875e+00
1.761490694146992207e+09,4.061613559722900391e+00,1.516827940940856934e+00,-1.333269476890563965e+00,1.759059786796569824e+00
1.761490694167654991e+09,4.064155578613281250e+00,1.487199306488037109e+00,-1.349100589752197266e+00,1.756358265876770020e+00
1.761490694187129736e+09,4.088005065917968750e+00,1.448390960693359375e+00,-1.381569385528564453e+00,1.756433963775634766e+00
1.761490694207509756e+09,4.098769187927246094e+00,1.420593023300170898e+00,-1.400236606597900391e+00,1.755896210670471191e+00
1.761490694227981329e+09,4.103209972381591797e+00,1.378898143768310547e+00,-1.435127019882202148e+00,1.755466222763061523e+00
1.761490694247465849e+09,4.103696346282958984e+00,1.351685404777526855e+00,-1.461106657981872559e+00,1.750479936599731445e+00
1.761490694267275572e+09,4.104973316192626953e+00,1.317371249198913574e+00,-1.494263291358947754e+00,1.747307658195495605e+00
1.761490694288397312e+09,4.103208065032958984e+00,1.295304298400878906e+00,-1.516627788543701172e+00,1.744939208030700684e+00
1.761490694307292461e+09,4.111785411834716797e+00,1.245588183403015137e+00,-1.550631999969482422e+00,1.744587898254394531e+00
1.761490694327591181e+09,4.120337009429931641e+00,1.220730304718017578e+00,-1.582394480705261230e+00,1.741568565368652344e+00
1.761490694347375870e+09,4.129781246185302734e+00,1.184123158454895020e+00,-1.605508565902709961e+00,1.738216876983642578e+00
1.761490694367332220e+09,4.137727737426757812e+00,1.157322645187377930e+00,-1.631748199462890625e+00,1.734997034072875977e+00
1.761490694387088537e+09,4.156395435333251953e+00,1.108583569526672363e+00,-1.661325931549072266e+00,1.731128334999084473e+00
1.761490694407854080e+09,4.165837764739990234e+00,1.073906421661376953e+00,-1.690662026405334473e+00,1.729869723320007324e+00
1.761490694426845789e+09,4.168462753295898438e+00,1.046181321144104004e+00,-1.718695878982543945e+00,1.728441238403320312e+00
1.761490694448011637e+09,4.149533748626708984e+00,1.000357031822204590e+00,-1.762464642524719238e+00,1.724981307983398438e+00
1.761490694466817141e+09,4.127418994903564453e+00,9.759746789932250977e-01,-1.792681097984313965e+00,1.723346471786499023e+00
1.761490694488533497e+09,4.109476566314697266e+00,9.420543313026428223e-01,-1.806310653686523438e+00,1.716701030731201172e+00
1.761490694506912470e+09,4.090116500854492188e+00,8.824419379234313965e-01,-1.862608551979064941e+00,1.708909630775451660e+00
1.761490694528066635e+09,4.076661586761474609e+00,8.487915396690368652e-01,-1.889781475067138672e+00,1.706618189811706543e+00
1.761490694547093868e+09,4.073404788970947266e+00,8.312959671020507812e-01,-1.903585076332092285e+00,1.702351570129394531e+00
1.761490694567955971e+09,4.075325012207031250e+00,7.987973093986511230e-01,-1.916175365447998047e+00,1.696893692016601562e+00
1.761490694586664915e+09,4.071180343627929688e+00,7.470582127571105957e-01,-1.955270171165466309e+00,1.696200847625732422e+00
1.761490694607437372e+09,4.057498931884765625e+00,6.892413496971130371e-01,-2.006029129028320312e+00,1.692305922508239746e+00
1.761490694627156258e+09,4.045847415924072266e+00,6.660540699958801270e-01,-2.027340173721313477e+00,1.690701365470886230e+00
1.761490694647484064e+09,4.026493549346923828e+00,6.251335144042968750e-01,-2.077734947204589844e+00,1.689574003219604492e+00
1.761490694667078733e+09,4.012001037597656250e+00,5.972146391868591309e-01,-2.099684476852416992e+00,1.685565948486328125e+00
1.761490694688597441e+09,4.004048347473144531e+00,5.785099864006042480e-01,-2.115593433380126953e+00,1.684543490409851074e+00
1.761490694707378149e+09,3.976849794387817383e+00,5.469962358474731445e-01,-2.166481971740722656e+00,1.682833790779113770e+00
1.761490694727789640e+09,3.960056304931640625e+00,5.269613862037658691e-01,-2.171082258224487305e+00,1.681761980056762695e+00
1.761490694747915983e+09,3.952981710433959961e+00,4.903342425823211670e-01,-2.201734066009521484e+00,1.680980443954467773e+00
1.761490694767403126e+09,3.940746307373046875e+00,4.550536572933197021e-01,-2.219411134719848633e+00,1.678372740745544434e+00
1.761490694787362576e+09,3.896393299102783203e+00,4.457415640354156494e-01,-2.264298677444458008e+00,1.672311425209045410e+00
1.761490694808528185e+09,3.858673095703125000e+00,4.067451655864715576e-01,-2.296803236007690430e+00,1.666894078254699707e+00
1.761490694827178955e+09,3.823947191238403320e+00,3.844923377037048340e-01,-2.309913635253906250e+00,1.666951537132263184e+00
1.761490694847809076e+09,3.784772396087646484e+00,3.546445369720458984e-01,-2.358972072601318359e+00,1.667156457901000977e+00
1.761490694866811275e+09,3.750547170639038086e+00,3.426806330680847168e-01,-2.375586271286010742e+00,1.667536497116088867e+00
1.761490694887696743e+09,3.719308614730834961e+00,3.287527263164520264e-01,-2.391214132308959961e+00,1.661715626716613770e+00
1.761490694907015800e+09,3.685229539871215820e+00,3.116301894187927246e-01,-2.439640522003173828e+00,1.660814285278320312e+00
1.761490694927842855e+09,3.651787996292114258e+00,2.915361821651458740e-01,-2.465804338455200195e+00,1.661580801010131836e+00
1.761490694947015047e+09,3.632812500000000000e+00,2.713872194290161133e-01,-2.479952096939086914e+00,1.662850022315979004e+00
1.761490694968816757e+09,3.608201503753662109e+00,2.534398734569549561e-01,-2.492196321487426758e+00,1.662810921669006348e+00
1.761490694986830473e+09,3.581112623214721680e+00,2.356513440608978271e-01,-2.519394636154174805e+00,1.663665890693664551e+00
1.761490695008617878e+09,3.565136194229125977e+00,2.266380786895751953e-01,-2.532912969589233398e+00,1.663953542709350586e+00
1.761490695027140379e+09,3.549593925476074219e+00,2.194316089153289795e-01,-2.537934303283691406e+00,1.664721488952636719e+00
1.761490695047700405e+09,3.533510208129882812e+00,2.310269773006439209e-01,-2.560922861099243164e+00,1.665480256080627441e+00
1.761490695067338943e+09,3.513966083526611328e+00,2.245279848575592041e-01,-2.577453136444091797e+00,1.667753577232360840e+00
1.761490695087575197e+09,3.487428188323974609e+00,2.081714272499084473e-01,-2.586885690689086914e+00,1.668884873390197754e+00
1.761490695107624054e+09,3.461926937103271484e+00,1.848568767309188843e-01,-2.607446908950805664e+00,1.671723127365112305e+00
1.761490695127834320e+09,3.436830759048461914e+00,1.549214422702789307e-01,-2.623670339584350586e+00,1.673099637031555176e+00
1.761490695147420406e+09,3.420499563217163086e+00,1.300049722194671631e-01,-2.634087562561035156e+00,1.676379680633544922e+00
1.761490695167655945e+09,3.412025690078735352e+00,1.137430667877197266e-01,-2.638768434524536133e+00,1.679817318916320801e+00
1.761490695187336445e+09,3.360816478729248047e+00,9.833919256925582886e-02,-2.651648998260498047e+00,1.681794404983520508e+00
1.761490695207768440e+09,3.333000421524047852e+00,8.915293216705322266e-02,-2.659536361694335938e+00,1.684911370277404785e+00
1.761490695227012157e+09,3.290259361267089844e+00,8.266049623489379883e-02,-2.669004678726196289e+00,1.685548782348632812e+00
1.761490695248146534e+09,3.246886491775512695e+00,6.446491181850433350e-02,-2.683236837387084961e+00,1.687744021415710449e+00
1.761490695266786575e+09,3.211711645126342773e+00,4.879596084356307983e-02,-2.689832687377929688e+00,1.688335299491882324e+00
1.761490695288707256e+09,3.177449226379394531e+00,3.927943110466003418e-02,-2.694982767105102539e+00,1.685496687889099121e+00
1.761490695307234526e+09,3.138036012649536133e+00,2.364402264356613159e-02,-2.713186740875244141e+00,1.679060220718383789e+00
1.761490695327739954e+09,3.104382038116455078e+00,1.148567255586385727e-02,-2.727901935577392578e+00,1.677989840507507324e+00
1.761490695346704006e+09,3.068013191223144531e+00,-1.362161827273666859e-03,-2.736089229583740234e+00,1.671344995498657227e+00
1.761490695367956161e+09,3.040919542312622070e+00,-2.422259561717510223e-02,-2.750451326370239258e+00,1.649135351181030273e+00
1.761490695386823654e+09,3.005937576293945312e+00,-3.421642258763313293e-02,-2.761831283569335938e+00,1.638600230216979980e+00
1.761490695408542633e+09,2.970391511917114258e+00,-4.555064812302589417e-02,-2.774973869323730469e+00,1.631012558937072754e+00
1.761490695427034378e+09,2.936463594436645508e+00,-5.831572785973548889e-02,-2.787768125534057617e+00,1.617355585098266602e+00
1.761490695447855473e+09,2.888956069946289062e+00,-7.266209274530410767e-02,-2.802408933639526367e+00,1.600639104843139648e+00
1.761490695466815233e+09,2.856076955795288086e+00,-8.175216615200042725e-02,-2.807824611663818359e+00,1.591968178749084473e+00
1.761490695488062382e+09,2.815675497055053711e+00,-1.006060987710952759e-01,-2.825525760650634766e+00,1.587794065475463867e+00
1.761490695506778955e+09,2.778724431991577148e+00,-1.103074252605438232e-01,-2.851089477539062500e+00,1.562330961227416992e+00
1.761490695528373480e+09,2.760522127151489258e+00,-1.256571412086486816e-01,-2.871520042419433594e+00,1.530876994132995605e+00
1.761490695547008038e+09,2.729586124420166016e+00,-1.378626823425292969e-01,-2.883730411529541016e+00,1.513849616050720215e+00
1.761490695567541838e+09,2.705371379852294922e+00,-1.478121131658554077e-01,-2.892513751983642578e+00,1.473271727561950684e+00
1.761490695587093115e+09,2.678537130355834961e+00,-1.516670286655426025e-01,-2.909692287445068359e+00,1.430806398391723633e+00
1.761490695607675076e+09,2.644207477569580078e+00,-1.555141806602478027e-01,-2.924570798873901367e+00,1.394574880599975586e+00
1.761490695626998186e+09,2.612834692001342773e+00,-1.616522371768951416e-01,-2.931590557098388672e+00,1.352442383766174316e+00
1.761490695647953987e+09,2.581115722656250000e+00,-1.598294377326965332e-01,-2.945025444030761719e+00,1.330309152603149414e+00
1.761490695666753531e+09,2.552670240402221680e+00,-1.612558513879776001e-01,-2.951008081436157227e+00,1.315659999847412109e+00
1.761490695687964916e+09,2.522558212280273438e+00,-1.629945337772369385e-01,-2.955633878707885742e+00,1.280416369438171387e+00
1.761490695707723379e+09,2.498711824417114258e+00,-1.654287427663803101e-01,-2.973034858703613281e+00,1.277885913848876953e+00
1.761490695727615356e+09,2.469969749450683594e+00,-1.672033965587615967e-01,-2.987553834915161133e+00,1.268956422805786133e+00
1.761490695746978998e+09,2.455127716064453125e+00,-1.678283214569091797e-01,-2.992504835128784180e+00,1.264419674873352051e+00
1.761490695768292189e+09,2.422067642211914062e+00,-1.698715239763259888e-01,-2.995601654052734375e+00,1.186421275138854980e+00
1.761490695786722660e+09,2.396905660629272461e+00,-1.819502115249633789e-01,-3.014249563217163086e+00,1.105727672576904297e+00
1.761490695808965445e+09,2.375285863876342773e+00,-1.978124380111694336e-01,-3.023726463317871094e+00,1.054663181304931641e+00
1.761490695827506781e+09,2.361993074417114258e+00,-2.096676379442214966e-01,-3.031862020492553711e+00,1.008620977401733398e+00
1.761490695847660065e+09,2.334452390670776367e+00,-2.075238227844238281e-01,-3.039356708526611328e+00,9.720220565795898438e-01
1.761490695866960049e+09,2.319703817367553711e+00,-2.064794003963470459e-01,-3.044898748397827148e+00,9.241176843643188477e-01
1.761490695888505459e+09,2.297169923782348633e+00,-2.086980938911437988e-01,-3.050255298614501953e+00,8.636496067047119141e-01
1.761490695906966448e+09,2.276731491088867188e+00,-2.083500027656555176e-01,-3.057583808898925781e+00,8.790732026100158691e-01
1.761490695927868605e+09,2.250727176666259766e+00,-2.131402492523193359e-01,-3.065869808197021484e+00,8.896690011024475098e-01
1.761490695947013855e+09,2.228395223617553711e+00,-2.156258374452590942e-01,-3.067882537841796875e+00,8.947282433509826660e-01
1.761490695968003750e+09,2.211700201034545898e+00,-2.196029126644134521e-01,-3.071077346801757812e+00,8.588410019874572754e-01
1.761490695987108469e+09,2.190515995025634766e+00,-2.206543833017349243e-01,-3.074669837951660156e+00,8.339384198188781738e-01
1.761490696007627487e+09,2.166602134704589844e+00,-2.207419276237487793e-01,-3.077618598937988281e+00,7.994087934494018555e-01
1.761490696026996613e+09,2.153452634811401367e+00,-2.227018326520919800e-01,-3.078782320022583008e+00,7.601933479309082031e-01
1.761490696047737122e+09,2.132086753845214844e+00,-2.186869829893112183e-01,-3.079806327819824219e+00,7.143644690513610840e-01
1.761490696067039490e+09,2.114748477935791016e+00,-2.178845703601837158e-01,-3.081011772155761719e+00,6.777661442756652832e-01
1.761490696088638544e+09,2.101551294326782227e+00,-2.150123268365859985e-01,-3.081064701080322266e+00,6.464504003524780273e-01
1.761490696107047558e+09,2.086880207061767578e+00,-2.128677666187286377e-01,-3.081862926483154297e+00,5.934988856315612793e-01
1.761490696127707481e+09,2.073158740997314453e+00,-2.113424390554428101e-01,-3.082204103469848633e+00,5.438922643661499023e-01
1.761490696146918058e+09,2.060654878616333008e+00,-2.098710983991622925e-01,-3.082313299179077148e+00,4.912496209144592285e-01
1.761490696167870045e+09,2.047868251800537109e+00,-2.084561586380004883e-01,-3.081542253494262695e+00,5.008550882339477539e-01
1.761490696186640263e+09,2.037562131881713867e+00,-2.047959268093109131e-01,-3.081568241119384766e+00,5.107327103614807129e-01
1.761490696208499670e+09,2.022936582565307617e+00,-2.017969489097595215e-01,-3.081753015518188477e+00,5.185437202453613281e-01
1.761490696226910830e+09,2.011160373687744141e+00,-2.000308185815811157e-01,-3.082028627395629883e+00,4.856198132038116455e-01
1.761490696248923063e+09,1.995676040649414062e+00,-1.906071901321411133e-01,-3.084709405899047852e+00,4.541796743869781494e-01
1.761490696267645359e+09,1.983328104019165039e+00,-1.873535215854644775e-01,-3.087820291519165039e+00,4.306022226810455322e-01
1.761490696288944960e+09,1.974822640419006348e+00,-1.889008134603500366e-01,-3.090767621994018555e+00,4.153147935867309570e-01
1.761490696306821108e+09,1.966377615928649902e+00,-1.926942467689514160e-01,-3.092988252639770508e+00,3.913604915142059326e-01
1.761490696328041792e+09,1.957489728927612305e+00,-1.943803727626800537e-01,-3.093906164169311523e+00,3.685779869556427002e-01
1.761490696346890450e+09,1.949841141700744629e+00,-1.979980468750000000e-01,-3.095255374908447266e+00,3.214372396469116211e-01
1.761490696367534161e+09,1.941207647323608398e+00,-2.023621052503585815e-01,-3.097594499588012695e+00,3.727163672447204590e-01
1.761490696386868477e+09,1.930980443954467773e+00,-2.074039280414581299e-01,-3.099156379699707031e+00,4.258400499820709229e-01
1.761490696407948017e+09,1.920955181121826172e+00,-2.122854292392730713e-01,-3.100751638412475586e+00,4.794175922870635986e-01
1.761490696426865578e+09,1.909933686256408691e+00,-2.156575918197631836e-01,-3.102226495742797852e+00,4.987346827983856201e-01
1.761490696448918343e+09,1.896984934806823730e+00,-2.186390608549118042e-01,-3.104733943939208984e+00,5.173716545104980469e-01
1.761490696466960669e+09,1.885761022567749023e+00,-2.227486968040466309e-01,-3.106601715087890625e+00,5.435306429862976074e-01
1.761490696488529921e+09,1.870954632759094238e+00,-2.271464020013809204e-01,-3.107728481292724609e+00,5.603716373443603516e-01
1.761490696507081509e+09,1.857355594635009766e+00,-2.326199859380722046e-01,-3.109847784042358398e+00,5.616360902786254883e-01
