# x,y,theta,velocity
2.557262897491455078e+00,-1.858433932065963745e-01,-3.013075113296508789e+00,2.000000000000000000e+00
2.458432197570800781e+00,-1.973334401845932007e-01,-3.038115739822387695e+00,2.000000000000000000e+00
2.359358310699462891e+00,-2.064977586269378662e-01,-3.060084819793701172e+00,2.000000000000000000e+00
2.260117053985595703e+00,-2.136351317167282104e-01,-3.079001426696777344e+00,2.000000000000000000e+00
2.160766363143920898e+00,-2.190451025962829590e-01,-3.094879388809204102e+00,2.000000000000000000e+00
2.046452522277832031e+00,-2.070533037185668945e-01,2.860172271728515625e+00,2.000000000000000000e+00
1.950654268264770508e+00,-1.784767359495162964e-01,2.843868255615234375e+00,2.000000000000000000e+00
1.855315327644348145e+00,-1.484038829803466797e-01,2.829492092132568359e+00,2.000000000000000000e+00
1.760378241539001465e+00,-1.170850396156311035e-01,2.817888498306274414e+00,2.000000000000000000e+00
1.665762543678283691e+00,-8.480792492628097534e-02,2.809509277343750000e+00,2.000000000000000000e+00
1.571363568305969238e+00,-5.190253630280494690e-02,2.804740190505981445e+00,2.000000000000000000e+00
1.477060079574584961e+00,-1.872440800070762634e-02,2.803531885147094727e+00,2.000000000000000000e+00
1.382740974426269531e+00,1.440895348787307739e-02,2.805348873138427734e+00,2.000000000000000000e+00
1.288317203521728516e+00,4.724431037902832031e-02,2.809651136398315430e+00,2.000000000000000000e+00
1.193714380264282227e+00,7.956557720899581909e-02,2.816230773925781250e+00,2.000000000000000000e+00
1.098863005638122559e+00,1.111568212509155273e-01,2.825203657150268555e+00,2.000000000000000000e+00
1.003691077232360840e+00,1.417766958475112915e-01,2.836793661117553711e+00,2.000000000000000000e+00
9.081280231475830078e-01,1.711624711751937866e-01,2.851114273071289062e+00,2.000000000000000000e+00
8.121128082275390625e-01,1.990458965301513672e-01,2.868108510971069336e+00,2.000000000000000000e+00
7.156006693840026855e-01,2.251688539981842041e-01,2.887583971023559570e+00,2.000000000000000000e+00
6.185675859451293945e-01,2.492933869361877441e-01,2.909283638000488281e+00,2.000000000000000000e+00
5.210092067718505859e-01,2.712053656578063965e-01,2.932927131652832031e+00,2.000000000000000000e+00
4.229400753974914551e-01,2.907170653343200684e-01,2.958209753036499023e+00,2.000000000000000000e+00
3.243921399116516113e-01,3.076712787151336670e-01,2.984783887863159180e+00,2.000000000000000000e+00
2.254142761230468750e-01,3.219472467899322510e-01,3.012246847152709961e+00,2.000000000000000000e+00
1.260711550712585449e-01,3.334672749042510986e-01,3.040162801742553711e+00,2.000000000000000000e+00
2.644089423120021820e-02,3.421985507011413574e-01,3.068134069442749023e+00,2.000000000000000000e+00
-7.339099049568176270e-02,3.481458723545074463e-01,3.095860242843627930e+00,2.000000000000000000e+00
-1.733385771512985229e-01,3.513413369655609131e-01,3.123117685317993164e+00,2.000000000000000000e+00
-2.733226120471954346e-01,3.518400192260742188e-01,-3.133680582046508789e+00,2.000000000000000000e+00
-3.732776045799255371e-01,3.497593700885772705e-01,-3.109177827835083008e+00,2.000000000000000000e+00
-4.731586873531341553e-01,3.453600704669952393e-01,-3.088187217712402344e+00,2.000000000000000000e+00
-5.729458928108215332e-01,3.390858471393585205e-01,-3.072191715240478516e+00,2.000000000000000000e+00
-6.726422309875488281e-01,3.314934372901916504e-01,-3.061777830123901367e+00,2.000000000000000000e+00
-7.722696065902709961e-01,3.231430053710937500e-01,-3.056466817855834961e+00,2.000000000000000000e+00
-8.718640804290771484e-01,3.144934475421905518e-01,-3.055265188217163086e+00,2.000000000000000000e+00
-9.714673161506652832e-01,3.059039413928985596e-01,-3.057837963104248047e+00,2.000000000000000000e+00
-1.071114778518676758e+00,2.977661192417144775e-01,-3.064609766006469727e+00,2.000000000000000000e+00
-1.170831918716430664e+00,2.905259132385253906e-01,-3.075958728790283203e+00,2.000000000000000000e+00
-1.270633697509765625e+00,2.846520841121673584e-01,-3.091947078704833984e+00,2.000000000000000000e+00
-1.370524764060974121e+00,2.806039154529571533e-01,-3.112456083297729492e+00,2.000000000000000000e+00
-1.470494747161865234e+00,2.788271605968475342e-01,-3.137818336486816406e+00,2.000000000000000000e+00
-1.570497989654541016e+00,2.798491716384887695e-01,3.113600015640258789e+00,2.000000000000000000e+00
-1.670425653457641602e+00,2.844252288341522217e-01,3.072730064392089844e+00,2.000000000000000000e+00
-1.770074009895324707e+00,2.936142683029174805e-01,3.020363807678222656e+00,2.000000000000000000e+00
-1.869107604026794434e+00,3.086298704147338867e-01,2.956022024154663086e+00,2.000000000000000000e+00
-1.967017173767089844e+00,3.305865228176116943e-01,2.881492376327514648e+00,2.000000000000000000e+00
-2.063084840774536133e+00,3.602528274059295654e-01,2.799891233444213867e+00,2.000000000000000000e+00
-2.156408786773681641e+00,3.979440927505493164e-01,2.714018106460571289e+00,2.000000000000000000e+00
-2.246016025543212891e+00,4.436125159263610840e-01,2.625591993331909180e+00,2.000000000000000000e+00
-2.330993175506591797e+00,4.969794154167175293e-01,2.535633563995361328e+00,2.000000000000000000e+00
-2.410613775253295898e+00,5.576657056808471680e-01,2.445145606994628906e+00,2.000000000000000000e+00
-2.484397649765014648e+00,6.252613663673400879e-01,2.355489969253540039e+00,2.000000000000000000e+00
-2.551991462707519531e+00,6.992427706718444824e-01,2.267895460128784180e+00,2.000000000000000000e+00
-2.613029241561889648e+00,7.788802981376647949e-01,2.182782173156738281e+00,2.000000000000000000e+00
-2.667151689529418945e+00,8.633167147636413574e-01,2.099943399429321289e+00,2.000000000000000000e+00
-2.714108705520629883e+00,9.517330527305603027e-01,2.019262552261352539e+00,2.000000000000000000e+00
-2.753844976425170898e+00,1.043490648269653320e+00,1.941041946411132812e+00,2.000000000000000000e+00
-2.786438465118408203e+00,1.138080120086669922e+00,1.865428566932678223e+00,2.000000000000000000e+00
-2.811943531036376953e+00,1.234941124916076660e+00,1.791938662528991699e+00,2.000000000000000000e+00
-2.830360651016235352e+00,1.333446145057678223e+00,1.719851851463317871e+00,2.000000000000000000e+00
-2.841682910919189453e+00,1.432980895042419434e+00,1.648675441741943359e+00,2.000000000000000000e+00
-2.845933675765991211e+00,1.533008456230163574e+00,1.578186869621276855e+00,2.000000000000000000e+00
-2.843161582946777344e+00,1.633060097694396973e+00,1.508171081542968750e+00,2.000000000000000000e+00
-2.833412647247314453e+00,1.732684493064880371e+00,1.438229680061340332e+00,2.000000000000000000e+00
-2.816712141036987305e+00,1.831408500671386719e+00,1.367869257926940918e+00,2.000000000000000000e+00
-2.793074607849121094e+00,1.928730010986328125e+00,1.296708345413208008e+00,2.000000000000000000e+00
-2.762526750564575195e+00,2.024126291275024414e+00,1.224550247192382812e+00,2.000000000000000000e+00
-2.725127696990966797e+00,2.117062568664550781e+00,1.151327490806579590e+00,2.000000000000000000e+00
-2.680978059768676758e+00,2.206997156143188477e+00,1.077034354209899902e+00,2.000000000000000000e+00
-2.630225181579589844e+00,2.293386220932006836e+00,1.001716613769531250e+00,2.000000000000000000e+00
-2.573069810867309570e+00,2.375690698623657227e+00,9.255216717720031738e-01,2.000000000000000000e+00
-2.509777307510375977e+00,2.453391313552856445e+00,8.487704396247863770e-01,2.000000000000000000e+00
-2.440689325332641602e+00,2.526010513305664062e+00,7.719753384590148926e-01,2.000000000000000000e+00
-2.366234540939331055e+00,2.593131542205810547e+00,6.957414150238037109e-01,2.000000000000000000e+00
-2.286916971206665039e+00,2.654415607452392578e+00,6.206207275390625000e-01,2.000000000000000000e+00
-2.203284263610839844e+00,2.709615945816040039e+00,5.470896363258361816e-01,2.000000000000000000e+00
-2.115891218185424805e+00,2.758588790893554688e+00,4.756272435188293457e-01,2.000000000000000000e+00
-2.025276184082031250e+00,2.801301717758178711e+00,4.067645370960235596e-01,2.000000000000000000e+00
-1.931960701942443848e+00,2.837824344635009766e+00,3.410498201847076416e-01,2.000000000000000000e+00
-1.836457848548889160e+00,2.868316888809204102e+00,2.789691090583801270e-01,2.000000000000000000e+00
-1.739278912544250488e+00,2.893015861511230469e+00,2.208183854818344116e-01,2.000000000000000000e+00
-1.640913367271423340e+00,2.912212371826171875e+00,1.665831953287124634e-01,2.000000000000000000e+00
-1.541785478591918945e+00,2.926222562789916992e+00,1.159455627202987671e-01,2.000000000000000000e+00
-1.442205548286437988e+00,2.935355424880981445e+00,6.839759647846221924e-02,2.000000000000000000e+00
-1.342342495918273926e+00,2.939885377883911133e+00,2.348677814006805420e-02,2.000000000000000000e+00
-1.242366433143615723e+00,2.940049886703491211e+00,-1.909789815545082092e-02,2.000000000000000000e+00
-1.142477154731750488e+00,2.936067819595336914e+00,-5.960959568619728088e-02,2.000000000000000000e+00
-1.042815923690795898e+00,2.928140640258789062e+00,-9.826625138521194458e-02,2.000000000000000000e+00
-9.435306787490844727e-01,2.916455030441284180e+00,-1.398108005523681641e-01,2.000000000000000000e+00
-8.289378881454467773e-01,2.868754625320434570e+00,-7.850106805562973022e-02,2.000000000000000000e+00
-7.297862768173217773e-01,2.860453605651855469e+00,-8.797253668308258057e-02,2.000000000000000000e+00
-6.307017207145690918e-01,2.851385593414306641e+00,-9.397577494382858276e-02,2.000000000000000000e+00
-5.316566228866577148e-01,2.841895580291748047e+00,-9.648779034614562988e-02,2.000000000000000000e+00
-4.326187968254089355e-01,2.832330465316772461e+00,-9.549098461866378784e-02,2.000000000000000000e+00
-3.335551023483276367e-01,2.823038339614868164e+00,-9.097339957952499390e-02,2.000000000000000000e+00
-2.344352453947067261e-01,2.814368486404418945e+00,-8.293133229017257690e-02,2.000000000000000000e+00
-1.352356225252151489e-01,2.806669473648071289e+00,-7.140507549047470093e-02,2.000000000000000000e+00
-3.594313561916351318e-02,2.800282955169677734e+00,-5.650838837027549744e-02,2.000000000000000000e+00
6.343878060579299927e-02,2.795480728149414062e+00,-4.010539129376411438e-02,2.000000000000000000e+00
1.628851890563964844e-01,2.792269468307495117e+00,-2.476391196250915527e-02,2.000000000000000000e+00
2.623678147792816162e-01,2.790493488311767578e+00,-1.123703643679618835e-02,2.000000000000000000e+00
3.618651032447814941e-01,2.789974212646484375e+00,5.062941345386207104e-04,2.000000000000000000e+00
4.613623321056365967e-01,2.790535211563110352e+00,1.047400012612342834e-02,2.000000000000000000e+00
5.608505010604858398e-01,2.791999816894531250e+00,1.867049559950828552e-02,2.000000000000000000e+00
6.603254079818725586e-01,2.794191837310791016e+00,2.509791404008865356e-02,2.000000000000000000e+00
7.597866654396057129e-01,2.796935081481933594e+00,2.975522913038730621e-02,2.000000000000000000e+00
8.592369556427001953e-01,2.800053358078002930e+00,3.263922035694122314e-02,2.000000000000000000e+00
9.586807489395141602e-01,2.803369998931884766e+00,3.374435007572174072e-02,2.000000000000000000e+00
1.058123826980590820e+00,2.806707859039306641e+00,3.306328877806663513e-02,2.000000000000000000e+00
1.157572031021118164e+00,2.809888839721679688e+00,3.058718144893646240e-02,2.000000000000000000e+00
1.257030367851257324e+00,2.812733888626098633e+00,2.630570717155933380e-02,2.000000000000000000e+00
1.356501936912536621e+00,2.815062761306762695e+00,2.020744234323501587e-02,2.000000000000000000e+00
1.455987215042114258e+00,2.816694021224975586e+00,1.228008978068828583e-02,2.000000000000000000e+00
1.555482864379882812e+00,2.817445278167724609e+00,2.510544843971729279e-03,2.000000000000000000e+00
1.654980659484863281e+00,2.817132234573364258e+00,-9.114919230341911316e-03,2.000000000000000000e+00
1.754466533660888672e+00,2.815569400787353516e+00,-2.261059172451496124e-02,2.000000000000000000e+00
1.853919148445129395e+00,2.812570810317993164e+00,-3.799131140112876892e-02,2.000000000000000000e+00
1.953309297561645508e+00,2.807948589324951172e+00,-5.527247861027717590e-02,2.000000000000000000e+00
2.052598237991333008e+00,2.801514387130737305e+00,-7.447017729282379150e-02,2.000000000000000000e+00
2.151737213134765625e+00,2.793079853057861328e+00,-9.560135751962661743e-02,2.000000000000000000e+00
2.250664949417114258e+00,2.782456159591674805e+00,-1.186840534210205078e-01,2.000000000000000000e+00
2.349308013916015625e+00,2.769454717636108398e+00,-1.437377631664276123e-01,2.000000000000000000e+00
2.447578668594360352e+00,2.753888845443725586e+00,-1.707837432622909546e-01,2.000000000000000000e+00
2.545373678207397461e+00,2.735572814941406250e+00,-1.998456269502639771e-01,2.000000000000000000e+00
2.642572879791259766e+00,2.714323759078979492e+00,-2.309499830007553101e-01,2.000000000000000000e+00
2.739038705825805664e+00,2.689962625503540039e+00,-2.641269564628601074e-01,2.000000000000000000e+00
2.834614038467407227e+00,2.662314891815185547e+00,-2.994110584259033203e-01,2.000000000000000000e+00
2.929120540618896484e+00,2.631211757659912109e+00,-3.368420004844665527e-01,2.000000000000000000e+00
3.022358417510986328e+00,2.596492052078247070e+00,-3.764656484127044678e-01,1.991998791694641113e+00
3.114104032516479492e+00,2.558003902435302734e+00,-4.183350205421447754e-01,1.966001510620117188e+00
3.204108953475952148e+00,2.515606164932250977e+00,-4.625117480754852295e-01,1.941059589385986328e+00
3.292098045349121094e+00,2.469171524047851562e+00,-5.090671181678771973e-01,1.917242169380187988e+00
3.377768039703369141e+00,2.418587684631347656e+00,-5.580836534500122070e-01,1.894641995429992676e+00
3.460786342620849609e+00,2.363762378692626953e+00,-6.096568703651428223e-01,1.873380899429321289e+00
3.540788888931274414e+00,2.304624795913696289e+00,-6.638979315757751465e-01,1.853616476058959961e+00
3.617378473281860352e+00,2.241131782531738281e+00,-7.209345102310180664e-01,1.835545897483825684e+00
3.690124273300170898e+00,2.173270702362060547e+00,-7.809125781059265137e-01,1.819416761398315430e+00
3.758559465408325195e+00,2.101066827774047852e+00,-8.440009355545043945e-01,1.805539846420288086e+00
3.822180271148681641e+00,2.024589300155639648e+00,-9.103876352310180664e-01,1.794285893440246582e+00
3.880444288253784180e+00,1.943958520889282227e+00,-9.803717732429504395e-01,1.786318898200988770e+00
3.932760000228881836e+00,1.859349966049194336e+00,-1.054343700408935547e+00,1.782377839088439941e+00
3.978563547134399414e+00,1.771047115325927734e+00,-1.130164504051208496e+00,1.778511881828308105e+00
4.017581462860107422e+00,1.679542660713195801e+00,-1.205093860626220703e+00,1.773871421813964844e+00
4.049694061279296875e+00,1.585391998291015625e+00,-1.278944253921508789e+00,1.767402768135070801e+00
4.074807643890380859e+00,1.489137291908264160e+00,-1.352134466171264648e+00,1.759420752525329590e+00
4.092832088470458984e+00,1.391306757926940918e+00,-1.425051689147949219e+00,1.750192403793334961e+00
4.103678703308105469e+00,1.292422890663146973e+00,-1.498078227043151855e+00,1.740005016326904297e+00
4.107260704040527344e+00,1.193010807037353516e+00,-1.571596384048461914e+00,1.729152083396911621e+00
4.103490352630615234e+00,1.093606114387512207e+00,-1.645997762680053711e+00,1.718096256256103516e+00
4.092281341552734375e+00,9.947643280029296875e-01,-1.721691012382507324e+00,1.707547545433044434e+00
4.073549270629882812e+00,8.970697522163391113e-01,-1.799111008644104004e+00,1.698025226593017578e+00
4.047216415405273438e+00,8.011457920074462891e-01,-1.878734469413757324e+00,1.690169215202331543e+00
4.013213634490966797e+00,7.076668143272399902e-01,-1.961094379425048828e+00,1.684755921363830566e+00
3.971491813659667969e+00,6.173712015151977539e-01,-2.046781063079833984e+00,1.682735443115234375e+00
3.922062397003173828e+00,5.310558080673217773e-01,-2.135301351547241211e+00,1.682735443115234375e+00
3.865203142166137695e+00,4.494419395923614502e-01,-2.222509145736694336e+00,1.682735443115234375e+00
3.801638603210449219e+00,3.729301691055297852e-01,-2.304619312286376953e+00,1.687354803085327148e+00
3.732202529907226562e+00,3.016992807388305664e-01,-2.381395578384399414e+00,1.696985483169555664e+00
3.657669782638549805e+00,2.358154803514480591e-01,-2.453235626220703125e+00,1.710761666297912598e+00
3.578738451004028320e+00,1.752664744853973389e-01,-2.520484924316406250e+00,1.727977752685546875e+00
3.496034860610961914e+00,1.199771240353584290e-01,-2.583428144454956055e+00,1.748104929924011230e+00
3.410118341445922852e+00,6.982208788394927979e-02,-2.642305135726928711e+00,1.770735383033752441e+00
3.321485519409179688e+00,2.463587000966072083e-02,-2.697314023971557617e+00,1.795563578605651855e+00
3.230576038360595703e+00,-1.577900908887386322e-02,-2.748620748519897461e+00,1.822361946105957031e+00
3.137776374816894531e+00,-5.164543166756629944e-02,-2.796362876892089844e+00,1.850966691970825195e+00
3.043424367904663086e+00,-8.320631086826324463e-02,-2.840653657913208008e+00,1.881265282630920410e+00
2.947812318801879883e+00,-1.107202172279357910e-01,-2.881587028503417969e+00,1.913187026977539062e+00
2.851192474365234375e+00,-1.344578117132186890e-01,-2.919239282608032227e+00,1.946695566177368164e+00
2.753778934478759766e+00,-1.546989232301712036e-01,-2.953672885894775391e+00,1.981783509254455566e+00
2.655752658843994141e+00,-1.717302501201629639e-01,-2.984937906265258789e+00,2.000000000000000000e+00
