# x,y,theta,velocity
4.092281341552734375e+00,9.947643280029296875e-01,-1.721691012382507324e+00,1.707547545433044434e+00
4.073549270629882812e+00,8.970697522163391113e-01,-1.799111008644104004e+00,1.698025226593017578e+00
4.047216415405273438e+00,8.011457920074462891e-01,-1.878734469413757324e+00,1.690169215202331543e+00
4.013213634490966797e+00,7.076668143272399902e-01,-1.961094379425048828e+00,1.684755921363830566e+00
3.971491813659667969e+00,6.173712015151977539e-01,-2.046781063079833984e+00,1.682735443115234375e+00
3.875528812408447266e+00,5.208169817924499512e-01,-2.588669061660766602e+00,2.000000000000000000e+00
3.789116859436035156e+00,4.709548950195312500e-01,-2.655073642730712891e+00,2.000000000000000000e+00
3.699269056320190430e+00,4.275887608528137207e-01,-2.728554725646972656e+00,2.000000000000000000e+00
3.606487751007080078e+00,3.909181356430053711e-01,-2.800844669342041016e+00,2.000000000000000000e+00
3.511329174041748047e+00,3.609493076801300049e-01,-2.870421409606933594e+00,2.000000000000000000e+00
3.414347410202026367e+00,3.374993801116943359e-01,-2.936038732528686523e+00,2.000000000000000000e+00
3.316009283065795898e+00,3.202252984046936035e-01,-2.996738672256469727e+00,2.000000000000000000e+00
3.216765642166137695e+00,3.086769878864288330e-01,-3.051935672760009766e+00,2.000000000000000000e+00
3.117041110992431641e+00,3.023384511470794678e-01,-3.101456880569458008e+00,2.000000000000000000e+00
3.017173528671264648e+00,3.006618916988372803e-01,3.137793302536010742e+00,2.000000000000000000e+00
2.917377471923828125e+00,3.030970692634582520e-01,3.099252223968505859e+00,2.000000000000000000e+00
2.817766189575195312e+00,3.091099560260772705e-01,3.065849304199218750e+00,2.000000000000000000e+00
2.718392372131347656e+00,3.181977570056915283e-01,3.037224769592285156e+00,2.000000000000000000e+00
2.619284391403198242e+00,3.299005925655364990e-01,3.012951374053955078e+00,2.000000000000000000e+00
2.520456314086914062e+00,3.438019156455993652e-01,2.992628574371337891e+00,2.000000000000000000e+00
2.421905517578125000e+00,3.595224022865295410e-01,2.975926160812377930e+00,2.000000000000000000e+00
2.323611021041870117e+00,3.767141997814178467e-01,2.962575674057006836e+00,2.000000000000000000e+00
2.225535154342651367e+00,3.950564265251159668e-01,2.952343940734863281e+00,2.000000000000000000e+00
2.127628326416015625e+00,4.142528772354125977e-01,2.945014715194702148e+00,2.000000000000000000e+00
2.029837608337402344e+00,4.340295493602752686e-01,2.940386772155761719e+00,2.000000000000000000e+00
1.932110548019409180e+00,4.541318416595458984e-01,2.938290357589721680e+00,2.000000000000000000e+00
1.834397435188293457e+00,4.743196070194244385e-01,2.938604354858398438e+00,2.000000000000000000e+00
1.736651778221130371e+00,4.943617880344390869e-01,2.941259860992431641e+00,2.000000000000000000e+00
1.638829588890075684e+00,5.140309333801269531e-01,2.946224927902221680e+00,2.000000000000000000e+00
1.540890812873840332e+00,5.331012606620788574e-01,2.953464508056640625e+00,2.000000000000000000e+00
1.442798852920532227e+00,5.513511300086975098e-01,2.962913751602172852e+00,2.000000000000000000e+00
1.344521522521972656e+00,5.685665607452392578e-01,2.974478244781494141e+00,2.000000000000000000e+00
1.246031641960144043e+00,5.845433473587036133e-01,2.988073825836181641e+00,2.000000000000000000e+00
1.147309422492980957e+00,5.990824103355407715e-01,3.003695964813232422e+00,2.000000000000000000e+00
1.048345446586608887e+00,6.119777560234069824e-01,3.021459102630615234e+00,2.000000000000000000e+00
9.491448402404785156e-01,6.230038404464721680e-01,3.041566133499145508e+00,2.000000000000000000e+00
8.497298359870910645e-01,6.319110989570617676e-01,3.064106941223144531e+00,2.000000000000000000e+00
7.501382231712341309e-01,6.384549140930175781e-01,3.088781118392944336e+00,2.000000000000000000e+00
6.504195928573608398e-01,6.424467563629150391e-01,3.114776849746704102e+00,2.000000000000000000e+00
5.506311058998107910e-01,6.438061594963073730e-01,3.140855550765991211e+00,2.000000000000000000e+00
4.508333504199981689e-01,6.425938606262207031e-01,-3.117449760437011719e+00,2.000000000000000000e+00
3.510845601558685303e-01,6.389876008033752441e-01,-3.094666719436645508e+00,2.000000000000000000e+00
2.514352798461914062e-01,6.332300901412963867e-01,-3.074359893798828125e+00,2.000000000000000000e+00
1.519225239753723145e-01,6.255771517753601074e-01,-3.056457757949829102e+00,2.000000000000000000e+00
5.256619676947593689e-02,6.162583231925964355e-01,-3.040689945220947266e+00,2.000000000000000000e+00
-4.662921652197837830e-02,6.054744720458984375e-01,-3.026841163635253906e+00,2.000000000000000000e+00
-1.456705033779144287e-01,5.934100151062011719e-01,-3.014824628829956055e+00,2.000000000000000000e+00
-2.445716559886932373e-01,5.802463889122009277e-01,-3.004663467407226562e+00,2.000000000000000000e+00
-3.433505594730377197e-01,5.661714076995849609e-01,-2.996426582336425781e+00,2.000000000000000000e+00
-4.420279562473297119e-01,5.513794422149658203e-01,-2.990167140960693359e+00,2.000000000000000000e+00
-5.406273603439331055e-01,5.360682606697082520e-01,-2.985905170440673828e+00,2.000000000000000000e+00
-6.391749382019042969e-01,5.204356908798217773e-01,-2.983633756637573242e+00,2.000000000000000000e+00
-7.376990914344787598e-01,5.046775341033935547e-01,-2.983348369598388672e+00,2.000000000000000000e+00
-8.362306356430053711e-01,4.889898300170898438e-01,-2.985078573226928711e+00,2.000000000000000000e+00
-9.348022341728210449e-01,4.735736846923828125e-01,-2.988899946212768555e+00,2.000000000000000000e+00
-1.033448457717895508e+00,4.586398601531982422e-01,-2.994929552078247070e+00,2.000000000000000000e+00
-1.132203817367553711e+00,4.444127678871154785e-01,-3.003310203552246094e+00,2.000000000000000000e+00
-1.231099724769592285e+00,4.311326146125793457e-01,-3.014197587966918945e+00,2.000000000000000000e+00
-1.330159544944763184e+00,4.190568923950195312e-01,-3.027759075164794922e+00,2.000000000000000000e+00
-1.429393768310546875e+00,4.084620773792266846e-01,-3.044185161590576172e+00,2.000000000000000000e+00
-1.528799176216125488e+00,3.996464908123016357e-01,-3.063711643218994141e+00,2.000000000000000000e+00
-1.628360390663146973e+00,3.929349482059478760e-01,-3.086630582809448242e+00,2.000000000000000000e+00
-1.728052735328674316e+00,3.886840641498565674e-01,-3.113280057907104492e+00,2.000000000000000000e+00
-1.827840566635131836e+00,3.872856497764587402e-01,3.139187812805175781e+00,2.000000000000000000e+00
-1.927656888961791992e+00,3.891641199588775635e-01,3.104101419448852539e+00,2.000000000000000000e+00
-2.027370214462280273e+00,3.947697877883911133e-01,3.064361810684204102e+00,2.000000000000000000e+00
-2.126758098602294922e+00,4.045715332031250000e-01,3.019682645797729492e+00,2.000000000000000000e+00
-2.225521326065063477e+00,4.190467596054077148e-01,2.969853639602661133e+00,2.000000000000000000e+00
-2.323341608047485352e+00,4.386684894561767578e-01,2.914875507354736328e+00,2.000000000000000000e+00
-2.419873476028442383e+00,4.638805091381072998e-01,2.854989051818847656e+00,2.000000000000000000e+00
-2.514646530151367188e+00,4.950494468212127686e-01,2.790676832199096680e+00,2.000000000000000000e+00
-2.607144832611083984e+00,5.324343442916870117e-01,2.730026960372924805e+00,2.000000000000000000e+00
-2.686650037765502930e+00,6.081669330596923828e-01,2.187568902969360352e+00,1.885917901992797852e+00
-2.741508960723876953e+00,6.911554336547851562e-01,2.122410535812377930e+00,1.879863977432250977e+00
-2.790893793106079102e+00,7.775140404701232910e-01,2.058268547058105469e+00,1.872026324272155762e+00
-2.834677457809448242e+00,8.668433427810668945e-01,1.994883775711059570e+00,1.862560510635375977e+00
-2.872740030288696289e+00,9.587565064430236816e-01,1.932004094123840332e+00,1.851621031761169434e+00
-2.904966115951538086e+00,1.052875161170959473e+00,1.869382143020629883e+00,1.839364171028137207e+00
-2.931241273880004883e+00,1.148825287818908691e+00,1.806771278381347656e+00,1.825949668884277344e+00
-2.951452016830444336e+00,1.246233344078063965e+00,1.743923544883728027e+00,1.811543107032775879e+00
-2.965482711791992188e+00,1.344721436500549316e+00,1.680585980415344238e+00,1.796318769454956055e+00
-2.973216533660888672e+00,1.443902373313903809e+00,1.616498470306396484e+00,1.780462384223937988e+00
-2.974534273147583008e+00,1.543375015258789062e+00,1.551390528678894043e+00,1.764174461364746094e+00
-2.969314813613891602e+00,1.642718791961669922e+00,1.484978318214416504e+00,1.747922420501708984e+00
-2.957437515258789062e+00,1.741487145423889160e+00,1.416961073875427246e+00,1.732053756713867188e+00
-2.938783645629882812e+00,1.839201211929321289e+00,1.347017288208007812e+00,1.716922640800476074e+00
-2.913240432739257812e+00,1.935343384742736816e+00,1.274801254272460938e+00,1.702943444252014160e+00
-2.880705833435058594e+00,2.029348373413085938e+00,1.199936509132385254e+00,1.690613627433776855e+00
-2.841096162796020508e+00,2.120595932006835938e+00,1.122017264366149902e+00,1.680515408515930176e+00
-2.794353961944580078e+00,2.208401441574096680e+00,1.040580272674560547e+00,1.673411726951599121e+00
-2.740462541580200195e+00,2.292006254196166992e+00,9.551848769187927246e-01,1.670025348663330078e+00
-2.679484844207763672e+00,2.370588779449462891e+00,8.660013675689697266e-01,1.670025348663330078e+00
-2.611719846725463867e+00,2.443400382995605469e+00,7.772997021675109863e-01,1.670025348663330078e+00
-2.537934541702270508e+00,2.510108947753906250e+00,6.938647627830505371e-01,1.674356818199157715e+00
-2.459022045135498047e+00,2.570672273635864258e+00,6.162366867065429688e-01,1.684267640113830566e+00
-2.375793218612670898e+00,2.625158071517944336e+00,5.438885688781738281e-01,1.698585748672485352e+00
-2.288961887359619141e+00,2.673702955245971680e+00,4.764650166034698486e-01,1.716577529907226562e+00
-2.199153900146484375e+00,2.716497182846069336e+00,4.136286377906799316e-01,1.737691640853881836e+00
-2.106914520263671875e+00,2.753767728805541992e+00,3.550677001476287842e-01,1.761420488357543945e+00
-2.012714624404907227e+00,2.785768032073974609e+00,3.005399107933044434e-01,1.787410974502563477e+00
-1.916961431503295898e+00,2.812772512435913086e+00,2.498511672019958496e-01,1.815407752990722656e+00
-1.820002555847167969e+00,2.835071086883544922e+00,2.028495222330093384e-01,1.845236301422119141e+00
-1.722133636474609375e+00,2.852965116500854492e+00,1.594177633523941040e-01,1.876786947250366211e+00
-1.623602867126464844e+00,2.866765499114990234e+00,1.194681525230407715e-01,1.910001993179321289e+00
-1.524615406990051270e+00,2.876789331436157227e+00,8.293846994638442993e-02,1.944868087768554688e+00
-1.425337910652160645e+00,2.883359432220458984e+00,4.978810623288154602e-02,1.981409430503845215e+00
-1.325901985168457031e+00,2.886802434921264648e+00,1.999466679990291595e-02,2.000000000000000000e+00
-1.226407766342163086e+00,2.887448549270629883e+00,-6.449051201343536377e-03,2.000000000000000000e+00
-1.126927495002746582e+00,2.885630369186401367e+00,-2.953802421689033508e-02,2.000000000000000000e+00
-1.027508378028869629e+00,2.881683588027954102e+00,-4.925780743360519409e-02,2.000000000000000000e+00
-9.281760454177856445e-01,2.875945091247558594e+00,-6.558723002672195435e-02,2.000000000000000000e+00
-8.289378881454467773e-01,2.868754625320434570e+00,-7.850106805562973022e-02,2.000000000000000000e+00
-7.297862768173217773e-01,2.860453605651855469e+00,-8.797253668308258057e-02,2.000000000000000000e+00
-6.307017207145690918e-01,2.851385593414306641e+00,-9.397577494382858276e-02,2.000000000000000000e+00
-5.316566228866577148e-01,2.841895580291748047e+00,-9.648779034614562988e-02,2.000000000000000000e+00
-4.326187968254089355e-01,2.832330465316772461e+00,-9.549098461866378784e-02,2.000000000000000000e+00
-3.335551023483276367e-01,2.823038339614868164e+00,-9.097339957952499390e-02,2.000000000000000000e+00
-2.344352453947067261e-01,2.814368486404418945e+00,-8.293133229017257690e-02,2.000000000000000000e+00
-1.352356225252151489e-01,2.806669473648071289e+00,-7.140507549047470093e-02,2.000000000000000000e+00
-3.594313561916351318e-02,2.800282955169677734e+00,-5.650838837027549744e-02,2.000000000000000000e+00
6.343878060579299927e-02,2.795480728149414062e+00,-4.010539129376411438e-02,2.000000000000000000e+00
1.628851890563964844e-01,2.792269468307495117e+00,-2.476391196250915527e-02,2.000000000000000000e+00
2.623678147792816162e-01,2.790493488311767578e+00,-1.123703643679618835e-02,2.000000000000000000e+00
3.618651032447814941e-01,2.789974212646484375e+00,5.062941345386207104e-04,2.000000000000000000e+00
4.613623321056365967e-01,2.790535211563110352e+00,1.047400012612342834e-02,2.000000000000000000e+00
5.608505010604858398e-01,2.791999816894531250e+00,1.867049559950828552e-02,2.000000000000000000e+00
6.603254079818725586e-01,2.794191837310791016e+00,2.509791404008865356e-02,2.000000000000000000e+00
7.597866654396057129e-01,2.796935081481933594e+00,2.975522913038730621e-02,2.000000000000000000e+00
8.592369556427001953e-01,2.800053358078002930e+00,3.263922035694122314e-02,2.000000000000000000e+00
9.586807489395141602e-01,2.803369998931884766e+00,3.374435007572174072e-02,2.000000000000000000e+00
1.058123826980590820e+00,2.806707859039306641e+00,3.306328877806663513e-02,2.000000000000000000e+00
1.157572031021118164e+00,2.809888839721679688e+00,3.058718144893646240e-02,2.000000000000000000e+00
1.257030367851257324e+00,2.812733888626098633e+00,2.630570717155933380e-02,2.000000000000000000e+00
1.356501936912536621e+00,2.815062761306762695e+00,2.020744234323501587e-02,2.000000000000000000e+00
1.455987215042114258e+00,2.816694021224975586e+00,1.228008978068828583e-02,2.000000000000000000e+00
1.555482864379882812e+00,2.817445278167724609e+00,2.510544843971729279e-03,2.000000000000000000e+00
1.654980659484863281e+00,2.817132234573364258e+00,-9.114919230341911316e-03,2.000000000000000000e+00
1.754466533660888672e+00,2.815569400787353516e+00,-2.261059172451496124e-02,2.000000000000000000e+00
1.853919148445129395e+00,2.812570810317993164e+00,-3.799131140112876892e-02,2.000000000000000000e+00
1.953309297561645508e+00,2.807948589324951172e+00,-5.527247861027717590e-02,2.000000000000000000e+00
2.052598237991333008e+00,2.801514387130737305e+00,-7.447017729282379150e-02,2.000000000000000000e+00
2.151737213134765625e+00,2.793079853057861328e+00,-9.560135751962661743e-02,2.000000000000000000e+00
2.250664949417114258e+00,2.782456159591674805e+00,-1.186840534210205078e-01,2.000000000000000000e+00
2.349308013916015625e+00,2.769454717636108398e+00,-1.437377631664276123e-01,2.000000000000000000e+00
2.447578668594360352e+00,2.753888845443725586e+00,-1.707837432622909546e-01,2.000000000000000000e+00
2.545373678207397461e+00,2.735572814941406250e+00,-1.998456269502639771e-01,2.000000000000000000e+00
2.642572879791259766e+00,2.714323759078979492e+00,-2.309499830007553101e-01,2.000000000000000000e+00
2.739038705825805664e+00,2.689962625503540039e+00,-2.641269564628601074e-01,2.000000000000000000e+00
2.834614038467407227e+00,2.662314891815185547e+00,-2.994110584259033203e-01,2.000000000000000000e+00
2.929120540618896484e+00,2.631211757659912109e+00,-3.368420004844665527e-01,2.000000000000000000e+00
3.022358417510986328e+00,2.596492052078247070e+00,-3.764656484127044678e-01,1.991998791694641113e+00
3.114104032516479492e+00,2.558003902435302734e+00,-4.183350205421447754e-01,1.966001510620117188e+00
3.204108953475952148e+00,2.515606164932250977e+00,-4.625117480754852295e-01,1.941059589385986328e+00
3.292098045349121094e+00,2.469171524047851562e+00,-5.090671181678771973e-01,1.917242169380187988e+00
3.377768039703369141e+00,2.418587684631347656e+00,-5.580836534500122070e-01,1.894641995429992676e+00
3.460786342620849609e+00,2.363762378692626953e+00,-6.096568703651428223e-01,1.873380899429321289e+00
3.540788888931274414e+00,2.304624795913696289e+00,-6.638979315757751465e-01,1.853616476058959961e+00
3.617378473281860352e+00,2.241131782531738281e+00,-7.209345102310180664e-01,1.835545897483825684e+00
3.690124273300170898e+00,2.173270702362060547e+00,-7.809125781059265137e-01,1.819416761398315430e+00
3.758559465408325195e+00,2.101066827774047852e+00,-8.440009355545043945e-01,1.805539846420288086e+00
3.822180271148681641e+00,2.024589300155639648e+00,-9.103876352310180664e-01,1.794285893440246582e+00
3.880444288253784180e+00,1.943958520889282227e+00,-9.803717732429504395e-01,1.786318898200988770e+00
3.932760000228881836e+00,1.859349966049194336e+00,-1.054343700408935547e+00,1.782377839088439941e+00
3.978563547134399414e+00,1.771047115325927734e+00,-1.130164504051208496e+00,1.778511881828308105e+00
4.017581462860107422e+00,1.679542660713195801e+00,-1.205093860626220703e+00,1.773871421813964844e+00
4.049694061279296875e+00,1.585391998291015625e+00,-1.278944253921508789e+00,1.767402768135070801e+00
4.074807643890380859e+00,1.489137291908264160e+00,-1.352134466171264648e+00,1.759420752525329590e+00
4.092832088470458984e+00,1.391306757926940918e+00,-1.425051689147949219e+00,1.750192403793334961e+00
4.103678703308105469e+00,1.292422890663146973e+00,-1.498078227043151855e+00,1.740005016326904297e+00
4.107260704040527344e+00,1.193010807037353516e+00,-1.571596384048461914e+00,1.729152083396911621e+00
4.103490352630615234e+00,1.093606114387512207e+00,-1.645997762680053711e+00,1.718096256256103516e+00
