# x,y,theta,velocity
3.732202529907226562e+00,3.016992807388305664e-01,-2.381395578384399414e+00,1.696985483169555664e+00
3.657669782638549805e+00,2.358154803514480591e-01,-2.453235626220703125e+00,1.710761666297912598e+00
3.578738451004028320e+00,1.752664744853973389e-01,-2.520484924316406250e+00,1.727977752685546875e+00
3.496034860610961914e+00,1.199771240353584290e-01,-2.583428144454956055e+00,1.748104929924011230e+00
3.410118341445922852e+00,6.982208788394927979e-02,-2.642305135726928711e+00,1.770735383033752441e+00
3.304338455200195312e+00,3.674287348985671997e-02,-2.956246137619018555e+00,2.000000000000000000e+00
3.206123590469360352e+00,1.952865906059741974e-02,-2.981765985488891602e+00,2.000000000000000000e+00
3.107474088668823242e+00,5.008028820157051086e-03,-3.008374929428100586e+00,2.000000000000000000e+00
3.008482456207275391e+00,-6.957478821277618408e-03,-3.033468008041381836e+00,2.000000000000000000e+00
2.909228563308715820e+00,-1.651111803948879242e-02,-3.057039976119995117e+00,2.000000000000000000e+00
2.809780836105346680e+00,-2.379839494824409485e-02,-3.079102277755737305e+00,2.000000000000000000e+00
2.710182189941406250e+00,-2.896582521498203278e-02,-3.099670648574829102e+00,2.000000000000000000e+00
2.610492944717407227e+00,-3.215783461928367615e-02,-3.118777275085449219e+00,2.000000000000000000e+00
2.510776042938232422e+00,-3.351614251732826233e-02,-3.136467695236206055e+00,2.000000000000000000e+00
2.411065340042114258e+00,-3.317989408969879150e-02,3.130403280258178711e+00,2.000000000000000000e+00
2.311367988586425781e+00,-3.128479793667793274e-02,3.115424156188964844e+00,2.000000000000000000e+00
2.211698055267333984e+00,-2.796158008277416229e-02,3.101728200912475586e+00,2.000000000000000000e+00
2.112076520919799805e+00,-2.333592623472213745e-02,3.089261054992675781e+00,2.000000000000000000e+00
2.012522935867309570e+00,-1.752889901399612427e-02,3.077976703643798828e+00,2.000000000000000000e+00
1.913045287132263184e+00,-1.065724715590476990e-02,3.067834138870239258e+00,2.000000000000000000e+00
1.813641548156738281e+00,-2.833047416061162949e-03,3.058787345886230469e+00,2.000000000000000000e+00
1.714306235313415527e+00,5.837127566337585449e-03,3.050781726837158203e+00,2.000000000000000000e+00
1.615035891532897949e+00,1.525224559009075165e-02,3.043768405914306641e+00,2.000000000000000000e+00
1.515827894210815430e+00,2.531531266868114471e-02,3.037715673446655273e+00,2.000000000000000000e+00
1.416678309440612793e+00,3.593148291110992432e-02,3.032608509063720703e+00,2.000000000000000000e+00
1.317581057548522949e+00,4.700703173875808716e-02,3.028431177139282227e+00,2.000000000000000000e+00
1.218527078628540039e+00,5.845078825950622559e-02,3.025147676467895508e+00,2.000000000000000000e+00
1.119506835937500000e+00,7.017659395933151245e-02,3.022696971893310547e+00,2.000000000000000000e+00
1.020510554313659668e+00,8.210568875074386597e-02,3.021006584167480469e+00,2.000000000000000000e+00
9.215295910835266113e-01,9.416630119085311890e-02,3.020032167434692383e+00,2.000000000000000000e+00
8.225554823875427246e-01,1.062884554266929626e-01,3.019788503646850586e+00,2.000000000000000000e+00
7.235794663429260254e-01,1.183974221348762512e-01,3.020350694656372070e+00,2.000000000000000000e+00
6.245916485786437988e-01,1.304082721471786499e-01,3.021791934967041016e+00,2.000000000000000000e+00
5.255817770957946777e-01,1.422318220138549805e-01,3.024049520492553711e+00,2.000000000000000000e+00
4.265415966510772705e-01,1.537954807281494141e-01,3.026836633682250977e+00,2.000000000000000000e+00
3.274677097797393799e-01,1.650669127702713013e-01,3.029649734497070312e+00,2.000000000000000000e+00
2.283637672662734985e-01,1.760732233524322510e-01,3.031926631927490234e+00,2.000000000000000000e+00
1.292392760515213013e-01,1.868934035301208496e-01,3.033294677734375000e+00,2.000000000000000000e+00
3.010583668947219849e-02,1.976284980773925781e-01,3.033646583557128906e+00,2.000000000000000000e+00
-6.902576982975006104e-02,2.083788663148880005e-01,3.033007383346557617e+00,2.000000000000000000e+00
-1.681454777717590332e-01,2.192406952381134033e-01,3.031407117843627930e+00,2.000000000000000000e+00
-2.672431468963623047e-01,2.303083539009094238e-01,3.028852462768554688e+00,2.000000000000000000e+00
-3.663076460361480713e-01,2.416766732931137085e-01,3.025325775146484375e+00,2.000000000000000000e+00
-4.653261899948120117e-01,2.534431815147399902e-01,3.020793437957763672e+00,2.000000000000000000e+00
-5.642840266227722168e-01,2.657091021537780762e-01,3.015213012695312500e+00,2.000000000000000000e+00
-6.631644368171691895e-01,2.785798609256744385e-01,3.008538484573364258e+00,2.000000000000000000e+00
-7.619490027427673340e-01,2.921655774116516113e-01,3.000718593597412109e+00,2.000000000000000000e+00
-8.606170415878295898e-01,3.065813183784484863e-01,2.991697788238525391e+00,2.000000000000000000e+00
-9.591447710990905762e-01,3.219475746154785156e-01,2.981413841247558594e+00,2.000000000000000000e+00
-1.057502746582031250e+00,3.383907079696655273e-01,2.969796895980834961e+00,2.000000000000000000e+00
-1.155654311180114746e+00,3.560432195663452148e-01,2.956764698028564453e+00,2.000000000000000000e+00
-1.253554105758666992e+00,3.750448524951934814e-01,2.942214488983154297e+00,2.000000000000000000e+00
-1.351148605346679688e+00,3.955453336238861084e-01,2.926015138626098633e+00,2.000000000000000000e+00
-1.448376297950744629e+00,4.177070856094360352e-01,2.908008575439453125e+00,2.000000000000000000e+00
-1.545168757438659668e+00,4.417079985141754150e-01,2.888021945953369141e+00,2.000000000000000000e+00
-1.641446232795715332e+00,4.677409231662750244e-01,2.865891218185424805e+00,2.000000000000000000e+00
-1.737110137939453125e+00,4.960093796253204346e-01,2.841466665267944336e+00,2.000000000000000000e+00
-1.832033753395080566e+00,5.267228484153747559e-01,2.814599514007568359e+00,2.000000000000000000e+00
-1.926055788993835449e+00,5.600938200950622559e-01,2.785103321075439453e+00,2.000000000000000000e+00
-2.018984794616699219e+00,5.963434576988220215e-01,2.752725839614868164e+00,2.000000000000000000e+00
-2.110609531402587891e+00,6.357111930847167969e-01,2.717161655426025391e+00,2.000000000000000000e+00
-2.200706720352172852e+00,6.784631609916687012e-01,2.678134202957153320e+00,2.000000000000000000e+00
-2.289035081863403320e+00,7.248818278312683105e-01,2.635506391525268555e+00,2.000000000000000000e+00
-2.375304937362670898e+00,7.752310633659362793e-01,2.589293003082275391e+00,2.000000000000000000e+00
-2.459147453308105469e+00,8.297176957130432129e-01,2.539566516876220703e+00,2.000000000000000000e+00
-2.540099382400512695e+00,8.884637951850891113e-01,2.486388683319091797e+00,2.000000000000000000e+00
-2.617646455764770508e+00,9.515159130096435547e-01,2.429881334304809570e+00,2.000000000000000000e+00
-2.691296100616455078e+00,1.018872380256652832e+00,2.370406866073608398e+00,2.000000000000000000e+00
-2.760648727416992188e+00,1.090510129928588867e+00,2.308672904968261719e+00,2.000000000000000000e+00
-2.825381517410278320e+00,1.166348099708557129e+00,2.245472669601440430e+00,2.000000000000000000e+00
-2.885148048400878906e+00,1.246154904365539551e+00,2.181577682495117188e+00,2.000000000000000000e+00
-2.939687967300415039e+00,1.329623579978942871e+00,2.123799324035644531e+00,1.987956047058105469e+00
-2.973216533660888672e+00,1.443902373313903809e+00,1.616498470306396484e+00,1.780462384223937988e+00
-2.974534273147583008e+00,1.543375015258789062e+00,1.551390528678894043e+00,1.764174461364746094e+00
-2.969314813613891602e+00,1.642718791961669922e+00,1.484978318214416504e+00,1.747922420501708984e+00
-2.957437515258789062e+00,1.741487145423889160e+00,1.416961073875427246e+00,1.732053756713867188e+00
-2.938783645629882812e+00,1.839201211929321289e+00,1.347017288208007812e+00,1.716922640800476074e+00
-2.913240432739257812e+00,1.935343384742736816e+00,1.274801254272460938e+00,1.702943444252014160e+00
-2.880705833435058594e+00,2.029348373413085938e+00,1.199936509132385254e+00,1.690613627433776855e+00
-2.841096162796020508e+00,2.120595932006835938e+00,1.122017264366149902e+00,1.680515408515930176e+00
-2.794353961944580078e+00,2.208401441574096680e+00,1.040580272674560547e+00,1.673411726951599121e+00
-2.740462541580200195e+00,2.292006254196166992e+00,9.551848769187927246e-01,1.670025348663330078e+00
-2.679484844207763672e+00,2.370588779449462891e+00,8.660013675689697266e-01,1.670025348663330078e+00
-2.611719846725463867e+00,2.443400382995605469e+00,7.772997021675109863e-01,1.670025348663330078e+00
-2.537934541702270508e+00,2.510108947753906250e+00,6.938647627830505371e-01,1.674356818199157715e+00
-2.459022045135498047e+00,2.570672273635864258e+00,6.162366867065429688e-01,1.684267640113830566e+00
-2.375793218612670898e+00,2.625158071517944336e+00,5.438885688781738281e-01,1.698585748672485352e+00
-2.288961887359619141e+00,2.673702955245971680e+00,4.764650166034698486e-01,1.716577529907226562e+00
-2.199153900146484375e+00,2.716497182846069336e+00,4.136286377906799316e-01,1.737691640853881836e+00
-2.106914520263671875e+00,2.753767728805541992e+00,3.550677001476287842e-01,1.761420488357543945e+00
-2.012714624404907227e+00,2.785768032073974609e+00,3.005399107933044434e-01,1.787410974502563477e+00
-1.916961431503295898e+00,2.812772512435913086e+00,2.498511672019958496e-01,1.815407752990722656e+00
-1.820002555847167969e+00,2.835071086883544922e+00,2.028495222330093384e-01,1.845236301422119141e+00
-1.722133636474609375e+00,2.852965116500854492e+00,1.594177633523941040e-01,1.876786947250366211e+00
-1.623602867126464844e+00,2.866765499114990234e+00,1.194681525230407715e-01,1.910001993179321289e+00
-1.502064943313598633e+00,2.872345685958862305e+00,8.979920297861099243e-02,2.000000000000000000e+00
-1.394250750541687012e+00,2.880652904510498047e+00,5.976621806621551514e-02,2.000000000000000000e+00
-1.286216020584106445e+00,2.885261535644531250e+00,2.410888299345970154e-02,2.000000000000000000e+00
-1.178085446357727051e+00,2.885865449905395508e+00,-1.247275900095701218e-02,2.000000000000000000e+00
-1.070003747940063477e+00,2.882564544677734375e+00,-4.571265727281570435e-02,2.000000000000000000e+00
-9.620705842971801758e-01,2.875983953475952148e+00,-7.132831215858459473e-02,2.000000000000000000e+00
-8.542969226837158203e-01,2.867152452468872070e+00,-8.696174621582031250e-02,2.000000000000000000e+00
-7.466205954551696777e-01,2.857200622558593750e+00,-9.293778985738754272e-02,2.000000000000000000e+00
-6.389595270156860352e-01,2.847081661224365234e+00,-9.190357476472854614e-02,2.000000000000000000e+00
-5.316566228866577148e-01,2.841895580291748047e+00,-9.648779034614562988e-02,2.000000000000000000e+00
-4.326187968254089355e-01,2.832330465316772461e+00,-9.549098461866378784e-02,2.000000000000000000e+00
-3.335551023483276367e-01,2.823038339614868164e+00,-9.097339957952499390e-02,2.000000000000000000e+00
-2.344352453947067261e-01,2.814368486404418945e+00,-8.293133229017257690e-02,2.000000000000000000e+00
-1.352356225252151489e-01,2.806669473648071289e+00,-7.140507549047470093e-02,2.000000000000000000e+00
-3.594313561916351318e-02,2.800282955169677734e+00,-5.650838837027549744e-02,2.000000000000000000e+00
6.343878060579299927e-02,2.795480728149414062e+00,-4.010539129376411438e-02,2.000000000000000000e+00
1.628851890563964844e-01,2.792269468307495117e+00,-2.476391196250915527e-02,2.000000000000000000e+00
2.623678147792816162e-01,2.790493488311767578e+00,-1.123703643679618835e-02,2.000000000000000000e+00
3.618651032447814941e-01,2.789974212646484375e+00,5.062941345386207104e-04,2.000000000000000000e+00
4.613623321056365967e-01,2.790535211563110352e+00,1.047400012612342834e-02,2.000000000000000000e+00
5.608505010604858398e-01,2.791999816894531250e+00,1.867049559950828552e-02,2.000000000000000000e+00
6.603254079818725586e-01,2.794191837310791016e+00,2.509791404008865356e-02,2.000000000000000000e+00
7.597866654396057129e-01,2.796935081481933594e+00,2.975522913038730621e-02,2.000000000000000000e+00
8.592369556427001953e-01,2.800053358078002930e+00,3.263922035694122314e-02,2.000000000000000000e+00
9.586807489395141602e-01,2.803369998931884766e+00,3.374435007572174072e-02,2.000000000000000000e+00
1.058123826980590820e+00,2.806707859039306641e+00,3.306328877806663513e-02,2.000000000000000000e+00
1.157572031021118164e+00,2.809888839721679688e+00,3.058718144893646240e-02,2.000000000000000000e+00
1.257030367851257324e+00,2.812733888626098633e+00,2.630570717155933380e-02,2.000000000000000000e+00
1.356501936912536621e+00,2.815062761306762695e+00,2.020744234323501587e-02,2.000000000000000000e+00
1.455987215042114258e+00,2.816694021224975586e+00,1.228008978068828583e-02,2.000000000000000000e+00
1.555482864379882812e+00,2.817445278167724609e+00,2.510544843971729279e-03,2.000000000000000000e+00
1.654980659484863281e+00,2.817132234573364258e+00,-9.114919230341911316e-03,2.000000000000000000e+00
1.754466533660888672e+00,2.815569400787353516e+00,-2.261059172451496124e-02,2.000000000000000000e+00
1.853919148445129395e+00,2.812570810317993164e+00,-3.799131140112876892e-02,2.000000000000000000e+00
1.953309297561645508e+00,2.807948589324951172e+00,-5.527247861027717590e-02,2.000000000000000000e+00
2.052598237991333008e+00,2.801514387130737305e+00,-7.447017729282379150e-02,2.000000000000000000e+00
2.151737213134765625e+00,2.793079853057861328e+00,-9.560135751962661743e-02,2.000000000000000000e+00
2.250664949417114258e+00,2.782456159591674805e+00,-1.186840534210205078e-01,2.000000000000000000e+00
2.349308013916015625e+00,2.769454717636108398e+00,-1.437377631664276123e-01,2.000000000000000000e+00
2.447578668594360352e+00,2.753888845443725586e+00,-1.707837432622909546e-01,2.000000000000000000e+00
2.545373678207397461e+00,2.735572814941406250e+00,-1.998456269502639771e-01,2.000000000000000000e+00
2.642572879791259766e+00,2.714323759078979492e+00,-2.309499830007553101e-01,2.000000000000000000e+00
2.739038705825805664e+00,2.689962625503540039e+00,-2.641269564628601074e-01,2.000000000000000000e+00
2.834614038467407227e+00,2.662314891815185547e+00,-2.994110584259033203e-01,2.000000000000000000e+00
2.929120540618896484e+00,2.631211757659912109e+00,-3.368420004844665527e-01,2.000000000000000000e+00
3.022358417510986328e+00,2.596492052078247070e+00,-3.764656484127044678e-01,1.991998791694641113e+00
3.114104032516479492e+00,2.558003902435302734e+00,-4.183350205421447754e-01,1.966001510620117188e+00
3.204108953475952148e+00,2.515606164932250977e+00,-4.625117480754852295e-01,1.941059589385986328e+00
3.292098045349121094e+00,2.469171524047851562e+00,-5.090671181678771973e-01,1.917242169380187988e+00
3.377768039703369141e+00,2.418587684631347656e+00,-5.580836534500122070e-01,1.894641995429992676e+00
3.460786342620849609e+00,2.363762378692626953e+00,-6.096568703651428223e-01,1.873380899429321289e+00
3.540788888931274414e+00,2.304624795913696289e+00,-6.638979315757751465e-01,1.853616476058959961e+00
3.617378473281860352e+00,2.241131782531738281e+00,-7.209345102310180664e-01,1.835545897483825684e+00
3.690124273300170898e+00,2.173270702362060547e+00,-7.809125781059265137e-01,1.819416761398315430e+00
3.758559465408325195e+00,2.101066827774047852e+00,-8.440009355545043945e-01,1.805539846420288086e+00
3.822180271148681641e+00,2.024589300155639648e+00,-9.103876352310180664e-01,1.794285893440246582e+00
3.880444288253784180e+00,1.943958520889282227e+00,-9.803717732429504395e-01,1.786318898200988770e+00
3.932760000228881836e+00,1.859349966049194336e+00,-1.054343700408935547e+00,1.782377839088439941e+00
3.978563547134399414e+00,1.771047115325927734e+00,-1.130164504051208496e+00,1.778511881828308105e+00
4.017581462860107422e+00,1.679542660713195801e+00,-1.205093860626220703e+00,1.773871421813964844e+00
4.049694061279296875e+00,1.585391998291015625e+00,-1.278944253921508789e+00,1.767402768135070801e+00
4.074807643890380859e+00,1.489137291908264160e+00,-1.352134466171264648e+00,1.759420752525329590e+00
4.092832088470458984e+00,1.391306757926940918e+00,-1.425051689147949219e+00,1.750192403793334961e+00
4.103678703308105469e+00,1.292422890663146973e+00,-1.498078227043151855e+00,1.740005016326904297e+00
4.107260704040527344e+00,1.193010807037353516e+00,-1.571596384048461914e+00,1.729152083396911621e+00
4.103490352630615234e+00,1.093606114387512207e+00,-1.645997762680053711e+00,1.718096256256103516e+00
4.092281341552734375e+00,9.947643280029296875e-01,-1.721691012382507324e+00,1.707547545433044434e+00
4.073549270629882812e+00,8.970697522163391113e-01,-1.799111008644104004e+00,1.698025226593017578e+00
4.047216415405273438e+00,8.011457920074462891e-01,-1.878734469413757324e+00,1.690169215202331543e+00
4.013213634490966797e+00,7.076668143272399902e-01,-1.961094379425048828e+00,1.684755921363830566e+00
3.971491813659667969e+00,6.173712015151977539e-01,-2.046781063079833984e+00,1.682735443115234375e+00
3.922062397003173828e+00,5.310558080673217773e-01,-2.135301351547241211e+00,1.682735443115234375e+00
3.865203142166137695e+00,4.494419395923614502e-01,-2.222509145736694336e+00,1.682735443115234375e+00
3.801638603210449219e+00,3.729301691055297852e-01,-2.304619312286376953e+00,1.687354803085327148e+00
