# time,x,y,theta
1.761199130586221695e+09,-1.751655244155269298e+00,-2.585327243356660629e-02,2.860492324997361724e+00,1.621938056446769139e+00
1.761199130605971098e+09,-1.782619189539513371e+00,-1.612823338983790378e-02,2.850347994083212377e+00,1.623577212726276864e+00
1.761199130626041412e+09,-1.813516471073850944e+00,-6.090848583898147983e-03,2.840092410845977966e+00,1.625094626375119367e+00
1.761199130645597458e+09,-1.843866285225840507e+00,4.102530264052977466e-03,2.829592354396013754e+00,1.578930892066522373e+00
1.761199130666029930e+09,-1.873708881203674848e+00,1.452940252317077435e-02,2.818425092786220887e+00,1.582227164581646806e+00
1.761199130685536385e+09,-1.903036333633030486e+00,2.524158047615714107e-02,2.806158483589293429e+00,1.542169570499164699e+00
1.761199130706442833e+09,-1.931535987296203905e+00,3.621016417427484757e-02,2.792180983547582596e+00,1.513143023488511929e+00
1.761199130725671291e+09,-1.959796850920297429e+00,4.763828317925015293e-02,2.777601012860809959e+00,1.535029573580860562e+00
1.761199130746564150e+09,-1.988128235445967951e+00,5.963100926275729380e-02,2.762776588235509756e+00,1.541435549480513201e+00
1.761199130766279697e+09,-2.016379110014332010e+00,7.212034821953032526e-02,2.747687932415915135e+00,1.547365752027638042e+00
1.761199130786199093e+09,-2.044535137274914316e+00,8.509719453968364600e-02,2.732414460888136443e+00,1.552855508793844042e+00
1.761199130805684090e+09,-2.072561150586036405e+00,9.854488278972579895e-02,2.716993801936843589e+00,1.555672393268483278e+00
1.761199130826565504e+09,-2.100007192576922588e+00,1.122424225603664005e-01,2.701220077629363558e+00,1.513970562278503129e+00
1.761199130845559597e+09,-2.126598584864220598e+00,1.260468534423523079e-01,2.685253896694309805e+00,1.483752549379861785e+00
1.761199130866081953e+09,-2.152770553657254560e+00,1.401777419837687833e-01,2.669576243033659591e+00,1.490509101620899557e+00
1.761199130885524988e+09,-2.178825589173481792e+00,1.547908470245811241e-01,2.654221412095128851e+00,1.496763829841366356e+00
1.761199130906842947e+09,-2.204427250142476424e+00,1.696876504581829037e-01,2.638824241306112928e+00,1.466862585630455573e+00
1.761199130925630569e+09,-2.229607684257576050e+00,1.848831244492101789e-01,2.623540547706517234e+00,1.474093107971019556e+00
1.761199130946970463e+09,-2.254663477082672784e+00,2.005474196632403283e-01,2.608473308741194874e+00,1.480786612929791524e+00
1.761199130965582848e+09,-2.279581415252373233e+00,2.166685372240907126e-01,2.593486973868882384e+00,1.486982985051025219e+00
1.761199130986128569e+09,-2.304036261046781942e+00,2.330284769228453956e-01,2.578332121242408626e+00,1.456882216734963542e+00
1.761199131005784750e+09,-2.328050029924513264e+00,2.496401008235387409e-01,2.563215409211311524e+00,1.463014327955564742e+00
1.761199131026415348e+09,-2.351900901122920828e+00,2.666885710934251419e-01,2.548269049433907529e+00,1.468691000201261643e+00
1.761199131045473337e+09,-2.375263751358069442e+00,2.839332922884888477e-01,2.533204459271026554e+00,1.436807163257461273e+00
1.761199131066171885e+09,-2.397886335618962583e+00,3.012549599511540332e-01,2.517388059286335800e+00,1.413703479090089088e+00
1.761199131085475445e+09,-2.419702856056523466e+00,3.186528896488306506e-01,2.500583311337288617e+00,1.378621306179406814e+00
1.761199131106910944e+09,-2.440654795845611957e+00,3.361611944861823686e-01,2.482399472715639543e+00,1.353200037750592832e+00
1.761199131125719547e+09,-2.461060888240889089e+00,3.540769900366825818e-01,2.463188914143084940e+00,1.362250191622332629e+00
1.761199131146078110e+09,-2.481142622860749380e+00,3.726135479120893379e-01,2.443069913108174784e+00,1.370628172655999233e+00
1.761199131165707588e+09,-2.500666757440944465e+00,3.915140825504943023e-01,2.422170822013716585e+00,1.348018366058330919e+00
1.761199131186277628e+09,-2.519471467090729888e+00,4.105913349358633058e-01,2.400836892340050266e+00,1.331634827585742809e+00
1.761199131205716372e+09,-2.537790868219770957e+00,4.300563644235732563e-01,2.379595705460268995e+00,1.341298972560365232e+00
1.761199131225999594e+09,-2.555834512231437206e+00,4.500290413450959148e-01,2.359132875094797299e+00,1.350245352734782411e+00
1.761199131245483398e+09,-2.573622531627936194e+00,4.704585880883107585e-01,2.339503298064358194e+00,1.358527268612009786e+00
1.761199131266189098e+09,-2.591154940771887460e+00,4.913610310611206122e-01,2.320274325728401976e+00,1.369556637312235203e+00
1.761199131285352707e+09,-2.608431816923581614e+00,5.127487751146634354e-01,2.301201898086348230e+00,1.379766850327918126e+00
1.761199131307262421e+09,-2.625266134578427835e+00,5.343968031823030929e-01,2.282009334632736142e+00,1.363447383872077312e+00
1.761199131325750113e+09,-2.641572895231032003e+00,5.561882920832048605e-01,2.262891019158643768e+00,1.365002069509575700e+00
1.761199131346050978e+09,-2.657674280262418254e+00,5.784083893259046594e-01,2.244984754662199933e+00,1.378918506638620256e+00
1.761199131366978407e+09,-2.673488441113650804e+00,6.009555487365745297e-01,2.227680854784331199e+00,1.375319853613713672e+00
1.761199131386108875e+09,-2.688908798575014192e+00,6.236995125053920175e-01,2.210646135156768111e+00,1.372712175703037385e+00
1.761199131405634403e+09,-2.704028046062809665e+00,6.467929237956653310e-01,2.193856894867827201e+00,1.387389940819559353e+00
1.761199131426239967e+09,-2.718923946879773013e+00,6.703659117217087848e-01,2.177203635934311876e+00,1.400977568483886992e+00
1.761199131445602179e+09,-2.733481784843217799e+00,6.942481253872162528e-01,2.160462496742377336e+00,1.396249935207494852e+00
1.761199131466425657e+09,-2.747589000355077804e+00,7.182848233299252705e-01,2.143486202622413739e+00,1.391130308266375959e+00
1.761199131485591888e+09,-2.761166114478189826e+00,7.425245249731934338e-01,2.125439477927870691e+00,1.387420491565614533e+00
1.761199131508060694e+09,-2.774225844538584340e+00,7.669772179185584404e-01,2.106769386565887192e+00,1.384846562131288428e+00
1.761199131526139021e+09,-2.786715514121084869e+00,7.915168201818780780e-01,2.087693031156453216e+00,1.354564361312956322e+00
1.761199131547257900e+09,-2.798366906818009703e+00,8.155908191860714584e-01,2.068240262507184291e+00,1.332890604386020028e+00
1.761199131566367865e+09,-2.809508233657894927e+00,8.398494935621106938e-01,2.049182244246952944e+00,1.336482497353790322e+00
1.761199131586946011e+09,-2.820145397399731912e+00,8.642752138726806921e-01,2.030284372614048927e+00,1.315780323097134996e+00
1.761199131606425285e+09,-2.830039448640913058e+00,8.882841756324214577e-01,2.011254126884474136e+00,1.282353668082748532e+00
1.761199131627484560e+09,-2.839268225247810751e+00,9.120226050748100333e-01,1.992500293614812623e+00,1.271801524873717115e+00
1.761199131650900841e+09,-2.848022991975220464e+00,9.359424382505289186e-01,1.974233389531544036e+00,1.275357644367498988e+00
1.761199131667005062e+09,-2.856295575277749688e+00,9.599769770792558887e-01,1.956142466192932527e+00,1.254575020024045751e+00
1.761199131686316490e+09,-2.864016274801983286e+00,9.838643195511407313e-01,1.938235118450167827e+00,1.255846316887653691e+00
1.761199131706065416e+09,-2.871384101299115699e+00,1.007888493847445499e+00,1.921555000439213012e+00,1.257023194313822811e+00
1.761199131725762129e+09,-2.878450995192161077e+00,1.032026657440404227e+00,1.906206044426941526e+00,1.258112658412390950e+00
1.761199131746114969e+09,-2.885291862225854764e+00,1.056415199405124294e+00,1.892058651988749451e+00,1.274678106260304755e+00
1.761199131765441418e+09,-2.891889429692704017e+00,1.081055640796201534e+00,1.878458609248705002e+00,1.276159427720203077e+00
1.761199131786270618e+09,-2.898192226874062083e+00,1.105802539731117085e+00,1.865082370120655586e+00,1.277530726949061446e+00
1.761199131805884123e+09,-2.904220953259969207e+00,1.130773323182389545e+00,1.851853515699141361e+00,1.291142712352492339e+00
1.761199131826393604e+09,-2.909994196594266835e+00,1.156073219059561064e+00,1.838679213650913358e+00,1.303743717943417035e+00
1.761199131845955849e+09,-2.915455924241159735e+00,1.181482136771665470e+00,1.825407239189007047e+00,1.295628533501708146e+00
1.761199131866264582e+09,-2.920565675214489509e+00,1.207112475163513610e+00,1.811524304273214536e+00,1.317609230552836852e+00
1.761199131885396242e+09,-2.925330002621407743e+00,1.233239470803089155e+00,1.796836332828292582e+00,1.337957389475642023e+00
1.761199131906026363e+09,-2.929743992410235531e+00,1.259825049976411648e+00,1.781595842745401059e+00,1.356794271285518994e+00
1.761199131925541878e+09,-2.933791285475867205e+00,1.286793373425886511e+00,1.765930550970120416e+00,1.370106324769241990e+00
1.761199131946036816e+09,-2.937454202807926240e+00,1.314075139822040494e+00,1.749939041307479126e+00,1.382429676981922650e+00
1.761199131965621948e+09,-2.940721024464353128e+00,1.341646037301141847e+00,1.733702116268255544e+00,1.393837757355911089e+00
1.761199131986495972e+09,-2.943554088072526387e+00,1.369248959599489668e+00,1.717167675881604794e+00,1.381628025315036146e+00
1.761199132006012678e+09,-2.945941358390051334e+00,1.396847979195573020e+00,1.700514322081833507e+00,1.388527374121235614e+00
1.761199132026496410e+09,-2.947893417772223135e+00,1.424614316669510217e+00,1.683854801985501304e+00,1.394914297961932226e+00
1.761199132045809031e+09,-2.949402993427237440e+00,1.452531336163495279e+00,1.667155310205297614e+00,1.400826863071484851e+00
1.761199132066518307e+09,-2.950459590495449369e+00,1.480494524865314965e+00,1.650360364277349667e+00,1.397685926858075911e+00
1.761199132085917950e+09,-2.951055625711706210e+00,1.508417587086663403e+00,1.633491212212559773e+00,1.395409923310260591e+00
1.761199132106129646e+09,-2.951188888793290221e+00,1.536307764483385130e+00,1.616604037293112528e+00,1.393760704256032934e+00
1.761199132125559807e+09,-2.950857616980470333e+00,1.564184421574061901e+00,1.599730710525830712e+00,1.394131953714610184e+00
1.761199132146282911e+09,-2.950050473788889516e+00,1.592058439756231847e+00,1.582754597109251149e+00,1.394475620588151887e+00
1.761199132165532112e+09,-2.948676279271677192e+00,1.619916842754002051e+00,1.564750063896099830e+00,1.394793767589009192e+00
1.761199132186326981e+09,-2.946774677243475971e+00,1.647216966423509898e+00,1.545806900663808214e+00,1.344519983027882226e+00
1.761199132206130266e+09,-2.944344796602756276e+00,1.674123800973934095e+00,1.526733061293861660e+00,1.357005014688833500e+00
1.761199132226273298e+09,-2.941350388886920797e+00,1.701215484847359072e+00,1.507876224965227108e+00,1.368562774650892822e+00
1.761199132245455265e+09,-2.937827038404969837e+00,1.728234475483887200e+00,1.488920666573139151e+00,1.356867778612200315e+00
1.761199132266547680e+09,-2.933775572796149866e+00,1.755184378101618980e+00,1.469970333906059468e+00,1.368306988398938273e+00
1.761199132285576344e+09,-2.929207418986635059e+00,1.782036949718241337e+00,1.450958075108528256e+00,1.356205572057505471e+00
1.761199132306151628e+09,-2.924158760436502469e+00,1.808592709754261563e+00,1.431869477311752625e+00,1.347436625784173891e+00
1.761199132326108932e+09,-2.918569543573393599e+00,1.834886425991611336e+00,1.412168785506983770e+00,1.341082458508097153e+00
1.761199132346441269e+09,-2.912369641147657617e+00,1.861063296949383883e+00,1.391776107972933385e+00,1.348988451594577809e+00
1.761199132365449190e+09,-2.905628745593396900e+00,1.886923330454786329e+00,1.370849714861819724e+00,1.324760324376578868e+00
1.761199132386351824e+09,-2.898423409877765256e+00,1.912227296187179570e+00,1.349648078156834963e+00,1.307204120822695881e+00
1.761199132406138659e+09,-2.890687150494451352e+00,1.937223929386834742e+00,1.328475110296911454e+00,1.309475346766324044e+00
1.761199132426084995e+09,-2.882295143224854694e+00,1.962054229797890681e+00,1.306467725071061015e+00,1.311577880672510465e+00
1.761199132445752144e+09,-2.873214148831012338e+00,1.986683766852573196e+00,1.283270670276240422e+00,1.313524262770493944e+00
1.761199132466140747e+09,-2.863394824577164322e+00,2.011165488996026429e+00,1.258985601196527249e+00,1.324185385459399011e+00
1.761199132485612869e+09,-2.852933655744191555e+00,2.035325295334704077e+00,1.233911277979021781e+00,1.309415352962606027e+00
1.761199132506282330e+09,-2.841931523092172451e+00,2.058965305450185745e+00,1.208382882354485544e+00,1.298712679830856809e+00
1.761199132525802135e+09,-2.830381991323000168e+00,2.082137007937868933e+00,1.182766531764662954e+00,1.290834856740650016e+00
1.761199132546591282e+09,-2.818282564614227326e+00,2.104873897692190798e+00,1.157212133522439235e+00,1.285126413563863368e+00
1.761199132565531492e+09,-2.805634006048359552e+00,2.127197826431516336e+00,1.131766926860945599e+00,1.280989964041088225e+00
1.761199132586866379e+09,-2.792718002716729320e+00,2.148657608186717027e+00,1.106100208622028180e+00,1.226630621623638229e+00
1.761199132605601549e+09,-2.779534645816655214e+00,2.169280089753273799e+00,1.080811956217130332e+00,1.221351736200047888e+00
1.761199132626122952e+09,-2.765854650863857511e+00,2.189467607797402238e+00,1.056127333909541166e+00,1.217526525339092114e+00
1.761199132645550489e+09,-2.751688159749524853e+00,2.209236369918304188e+00,1.031787515683039835e+00,1.214754724078941583e+00
1.761199132666331291e+09,-2.737108509341920737e+00,2.228609506764412274e+00,1.008281283984526766e+00,1.210161989992828646e+00
1.761199132685595274e+09,-2.722175568799144241e+00,2.247611925563027135e+00,9.858264683471369416e-01,1.206834012705967796e+00
1.761199132706150532e+09,-2.706947165801239397e+00,2.266305080026827401e+00,9.648720016914636988e-01,1.204422467209859349e+00
1.761199132725834131e+09,-2.691299586798453713e+00,2.284903815813351002e+00,9.454620233369256388e-01,1.225889177370816929e+00
1.761199132746777296e+09,-2.675115988202807049e+00,2.303588201366471022e+00,9.272443621429526939e-01,1.245761527443517203e+00
1.761199132766365051e+09,-2.658399224776481162e+00,2.322313064461924537e+00,9.094863515075294336e-01,1.264157931270457613e+00
1.761199132786247015e+09,-2.641249585138405465e+00,2.340934109650308237e+00,8.917901043757510138e-01,1.267336148953276842e+00
1.761199132805520058e+09,-2.623643705004639060e+00,2.359447156474931973e+00,8.741046166273265250e-01,1.287246466434504244e+00
1.761199132826284885e+09,-2.605471665869100839e+00,2.377945946320113357e+00,8.563769896523867331e-01,1.305678021119166532e+00
1.761199132845526934e+09,-2.586845487558215417e+00,2.396294444410540514e+00,8.384494699384823502e-01,1.308889177680053972e+00
1.761199132866354465e+09,-2.567816881340913682e+00,2.414420105676649442e+00,8.203576651968192968e-01,1.318996260743348303e+00
1.761199132885411739e+09,-2.548301343033803068e+00,2.432309264241230728e+00,8.015168357636385243e-01,1.328352680060634894e+00
1.761199132906071901e+09,-2.528280227688022741e+00,2.449904783637306238e+00,7.817213545499490657e-01,1.337014192807446156e+00
1.761199132925635099e+09,-2.507653822791265696e+00,2.467366598549441292e+00,7.620745630046403818e-01,1.365194951307458160e+00
1.761199132946935654e+09,-2.486430016888238725e+00,2.484739413737758085e+00,7.428577793214766745e-01,1.377430635093101374e+00
1.761199132965901136e+09,-2.464728975961498314e+00,2.501894676496903891e+00,7.237181829714980363e-01,1.388757559200103575e+00
1.761199132985998631e+09,-2.442559367999103781e+00,2.518801943208493821e+00,7.045522807575453905e-01,1.399243214377823064e+00
1.761199133005542517e+09,-2.419843394593057084e+00,2.535498774122592724e+00,6.853623852406700578e-01,1.419760962739833765e+00
1.761199133026239395e+09,-2.396511450228974827e+00,2.552016743253110675e+00,6.660943394996297062e-01,1.438754832580339205e+00
1.761199133045668840e+09,-2.372700101434435105e+00,2.568239530227118372e+00,6.465900267217943309e-01,1.442485407096578243e+00
1.761199133066234589e+09,-2.348472094410523514e+00,2.584104479436065471e+00,6.268898663637594293e-01,1.453439574662988010e+00
1.761199133085497379e+09,-2.323745816688464583e+00,2.599581767955743139e+00,6.064179581102203676e-01,1.463580162599321000e+00
1.761199133107177258e+09,-2.298514683871659692e+00,2.614606805345164098e+00,5.849353332437685626e-01,1.472967595997994206e+00
1.761199133125468493e+09,-2.273251835077468641e+00,2.628973878451747126e+00,5.632065079101955529e-01,1.435292873903989186e+00
1.761199133146777153e+09,-2.248286052052757888e+00,2.642549487993782531e+00,5.418705474243403764e-01,1.407992972920557362e+00
1.761199133165549040e+09,-2.223468787823057013e+00,2.655409211436772665e+00,5.210447340380995884e-01,1.388210921954274424e+00
1.761199133186331272e+09,-2.199188097300828648e+00,2.667382459262732208e+00,5.005387023919524170e-01,1.322511248597269873e+00
1.761199133205432653e+09,-2.175098507397741798e+00,2.678734611998382587e+00,4.817301547160054431e-01,1.340358258432343019e+00
1.761199133226075649e+09,-2.150588570703170888e+00,2.689657537302520218e+00,4.632091869551793195e-01,1.343025968649058877e+00
1.761199133245636940e+09,-2.125810480965604210e+00,2.700090827023695184e+00,4.446349748021620751e-01,1.345495537361066640e+00
1.761199133266630650e+09,-2.100964129067747432e+00,2.709968102145720703e+00,4.259018230393252225e-01,1.329169407286410642e+00
1.761199133285995245e+09,-2.076315594604096315e+00,2.719213292088919154e+00,4.071546315869850607e-01,1.289459180487792178e+00
1.761199133306608677e+09,-2.052546261702852259e+00,2.727699487824597480e+00,3.893465544115403687e-01,1.237196918684608793e+00
1.761199133326107264e+09,-2.028910739307330235e+00,2.735687713012227018e+00,3.727733463679703818e-01,1.257483093836303745e+00
1.761199133346219778e+09,-2.004789284467080268e+00,2.743449843382570918e+00,3.576452279271443158e-01,1.276262584322793492e+00
1.761199133365491152e+09,-1.980228265741998728e+00,2.751019588287717088e+00,3.436021439849201720e-01,1.293647302244292696e+00
1.761199133386155128e+09,-1.955388045170248112e+00,2.758336550397893383e+00,3.299797111198390365e-01,1.295886453430367347e+00
1.761199133405526161e+09,-1.930572338911440866e+00,2.765304189861593542e+00,3.164599091648896967e-01,1.282372314309298211e+00
1.761199133426232338e+09,-1.905891168926382218e+00,2.771887978942999542e+00,3.030174700838416113e-01,1.272579686061807269e+00
1.761199133445624113e+09,-1.881287369973570378e+00,2.778103419801914775e+00,2.896884064082047017e-01,1.265483715070689463e+00
1.761199133466204643e+09,-1.856710059133100943e+00,2.783975201704381064e+00,2.765934292807225581e-01,1.261630975223310358e+00
1.761199133485800743e+09,-1.832142943289039927e+00,2.789601434124047596e+00,2.646021793158775948e-01,1.258839233517546896e+00
1.761199133507276535e+09,-1.807569023973708111e+00,2.794978730528277833e+00,2.532686025934859364e-01,1.256816269691663379e+00
1.761199133525849342e+09,-1.782817268378899644e+00,2.800133401552078460e+00,2.423223432279832390e-01,1.271299829927320379e+00
1.761199133546207428e+09,-1.757890928145065867e+00,2.805059416685350637e+00,2.315254059017293198e-01,1.269642441777892872e+00
1.761199133565431356e+09,-1.732942778772105896e+00,2.809721840844443541e+00,2.207663688751944631e-01,1.268441448857288822e+00
1.761199133586575508e+09,-1.707967412126641049e+00,2.814119247116385836e+00,2.100354639115767919e-01,1.267571181567905381e+00
1.761199133605615139e+09,-1.683020098302042244e+00,2.818299434177456320e+00,1.999658784384184818e-01,1.262223960712974380e+00
1.761199133626296043e+09,-1.658135598713382564e+00,2.822297643133188760e+00,1.907422982018660007e-01,1.258349218123684832e+00
1.761199133645520210e+09,-1.633287887179472708e+00,2.826102786561905056e+00,1.819742233432768419e-01,1.255541529263294320e+00
1.761199133666392803e+09,-1.608274260781521692e+00,2.829745773147828380e+00,1.736008679031803836e-01,1.272012995999559859e+00
1.761199133686056137e+09,-1.583071277559052525e+00,2.833314078098318145e+00,1.663297173299736198e-01,1.273405918355053679e+00
1.761199133706644058e+09,-1.557826330136255155e+00,2.836775446312364224e+00,1.596803161440057961e-01,1.274695387407642100e+00
1.761199133725964308e+09,-1.532373976857431597e+00,2.840137398905492550e+00,1.533724770844055729e-01,1.292435172162046175e+00
