# x_m,y_m,w_tr_right_m,w_tr_left_m,psi,kappa,s,velocity,acceleration,time,n
0.0084208860204855,0.5396369888403143,1.5396597524846820,0.3603402475153179,-0.0002367688724805,0.0001755436442379,0.0000000000000000,4.0000000000000000,0.0000000000000000,0.0000000000000000,0.0000000000000000
0.1084188351325977,0.5396141916836160,1.5396448875401021,0.3603551124598980,-0.0002191679731802,0.0001764815522646,0.0999979517107172,4.0000000000000000,0.0000000000000000,0.0249994879276793,0.0000000000000000
0.2084167846315346,0.5395931597136996,1.5396174165433834,0.3603825834566165,-0.0002014599767874,0.0001776856299669,0.1999959034214182,4.0000000000000000,0.0000000000000000,0.0499989758553546,0.0000000000000000
0.3084147344887013,0.5395739063017995,1.5395628820979281,0.3604371179020729,-0.0001835783377302,0.0001799544766869,0.2999938551320923,4.0000000000000000,0.0000000000000000,0.0749984637830231,0.0000000000000000
0.4084126846761821,0.5395564527956926,1.5395229387576923,0.3604770612423082,-0.0001654567751070,0.0001824841995735,0.3999918068427287,4.0000000000000000,0.0000000000000000,0.0999979517106822,0.0000000000000000
0.5084106351654645,0.5395408240517173,1.5395107198586022,0.3604892801413976,-0.0001470823978968,0.0001850108719986,0.4999897585533242,4.0000000000000000,0.0000000000000000,0.1249974396383311,0.0000000000000000
0.6084085859268182,0.5395270459669947,1.5395240428141970,0.3604759571858033,-0.0001284365679390,0.0001879133657307,0.5999877102638755,4.0000000000000000,0.0000000000000000,0.1499969275659689,0.0000000000000000
0.7084065369296521,0.5395151493800112,1.5394847882669718,0.3605152117330284,-0.0001094272607520,0.0001922805654872,0.6999856619743677,4.0000000000000000,0.0000000000000000,0.1749964154935919,0.0000000000000000
0.8084044881427311,0.5395051761210616,1.5393557712707069,0.3606442287292937,-0.0000899632073930,0.0001970084754649,0.7999836136847864,4.0000000000000000,0.0000000000000000,0.1999959034211966,0.0000000000000000
0.9084024395328049,0.5394971728665949,1.5394635564172876,0.3605364435827129,-0.0000700263594753,0.0002017366503524,0.8999815653951271,4.0000000000000000,0.0000000000000000,0.2249953913487818,0.0000000000000000
1.0084003910639032,0.5394911868956752,1.5394765577798699,0.3605234422201310,-0.0000496167130346,0.0002064646396116,0.9999795171053883,4.0000000000000000,0.0000000000000000,0.2499948792763471,0.0000000000000000
1.1083983426971942,0.5394872654847918,1.5394333834896015,0.3605666165103991,-0.0000287343307006,0.0002111915618866,1.0999774688155681,4.0000000000000000,0.0000000000000000,0.2749943672038920,0.0000000000000000
1.2083962943909186,0.5394854559055365,1.5394194908669410,0.3605805091330595,-0.0000073791900475,0.0002159199996651,1.1999754205256656,4.0000000000000000,0.0000000000000000,0.2999938551314164,0.0000000000000000
1.3083942461003215,0.5394858054355534,1.5394662882890335,0.3605337117109664,0.0000144487165359,0.0002206470741724,1.2999733722356794,4.0000000000000000,0.0000000000000000,0.3249933430589199,0.0000000000000000
1.4083921977775857,0.5394883613454651,1.5394701333693075,0.3605298666306921,0.0000367493071598,0.0002253738741157,1.3999713239456077,4.0000000000000000,0.0000000000000000,0.3499928309864019,0.0000000000000000
1.5083901493717653,0.5394931709045053,1.5394746299680364,0.3605253700319634,0.0000595226495259,0.0002301023026913,1.4999692756554490,4.0000000000000000,0.0000000000000000,0.3749923189138623,0.0000000000000000
1.6083881008287182,0.5395002813901777,1.5394937455815334,0.3605062544184663,0.0000827687612128,0.0002348294542116,1.5999672273652021,4.0000000000000000,0.0000000000000000,0.3999918068413005,0.0000000000000000
1.7083860520910399,0.5395097400737477,1.5395115185891997,0.3604884814108001,0.0001064875652459,0.0002395563432577,1.6999651790748664,4.0000000000000000,0.0000000000000000,0.4249912947687166,0.0000000000000000
1.8083840030979828,0.5395215943235846,1.5395264010158369,0.3604735989841626,0.0001306820780576,0.0002443438246670,1.7999631307844399,4.0000000000000000,0.0000000000000000,0.4499907826961100,0.0000000000000000
1.9083819537852815,0.5395358922840090,1.5395370616794049,0.3604629383205950,0.0001553665031819,0.0002493547902168,1.8999610824939179,4.0000000000000000,0.0000000000000000,0.4749902706234795,0.0000000000000000
2.0083799040848600,0.5395526837769963,1.5395422727683075,0.3604577272316921,0.0001805546198552,0.0002544178619889,1.9999590342032965,4.0000000000000000,0.0000000000000000,0.4999897585508241,0.0000000000000000
2.1083778539247775,0.5395720193444914,1.5395404750579473,0.3604595249420532,0.0002062490379218,0.0002594810254990,2.0999569859125731,4.0000000000000000,0.0000000000000000,0.5249892464781433,0.0000000000000000
2.2083758032292189,0.5395939496119363,1.5395323514759118,0.3604676485240890,0.0002324496433947,0.0002645418174877,2.1999549376217469,4.0000000000000000,0.0000000000000000,0.5499887344054367,0.0000000000000000
2.3083737519184298,0.5396185251966137,1.5395669271592618,0.3604330728407383,0.0002591565427026,0.0002696071096097,2.2999528893308163,4.0000000000000000,0.0000000000000000,0.5749882223327041,0.0000000000000000
2.4083716999086326,0.5396457967333532,1.5396404573446461,0.3603595426553545,0.0002863697059161,0.0002746673030022,2.3999508410397792,4.0000000000000000,0.0000000000000000,0.5999877102599448,0.0000000000000000
2.5083696471119636,0.5396758148368452,1.5396571570482747,0.3603428429517251,0.0003140890687252,0.0002797313088962,2.4999487927486355,4.0000000000000000,0.0000000000000000,0.6249871981871589,0.0000000000000000
2.6083675934363804,0.5397086301329095,1.5396866924494175,0.3603133075505830,0.0003423146481858,0.0002847918434083,2.5999467444573807,4.0000000000000000,0.0000000000000000,0.6499866861143452,0.0000000000000000
2.7083655387856020,0.5397442932350378,1.5395873516703913,0.3604126483296088,0.0003710464046334,0.0002898550560068,2.6999446961660172,4.0000000000000000,0.0000000000000000,0.6749861740415043,0.0000000000000000
2.8083634830590172,0.5397828547675325,1.5392381791744674,0.3607618208255329,0.0004002844343634,0.0002949175164629,2.7999426478745439,4.0000000000000000,0.0000000000000000,0.6999856619686360,0.0000000000000000
2.9083614261509210,0.5398243670473141,1.5397940288107494,0.3602059711892502,0.0004300794960044,0.0003009959224226,2.8999405995829717,4.0000000000000000,0.0000000000000000,0.7249851498957429,0.0000000000000000
3.0083593679450606,0.5398688952630186,1.5398513491225430,0.3601486508774571,0.0004606653980128,0.0003107346478071,2.9999385512911250,4.0000000000000000,0.0000000000000000,0.7499846378227812,0.0000000000000000
3.1083573083067129,0.5399165319682926,1.5398749833351513,0.3601250166648491,0.0004922632748552,0.0003212358336239,3.0999365029992889,4.0000000000000000,0.0000000000000000,0.7749841257498222,0.0000000000000000
3.2083552470778267,0.5399673959132562,1.5399702256046672,0.3600297743953323,0.0005253616582299,0.0003407453933676,3.1999344547063728,4.0000000000000000,0.0000000000000000,0.7999836136765932,0.0000000000000000
3.3083531845087437,0.5400208282463654,1.5399996478475648,0.3600003521524356,0.0005352426666090,-0.0001431211777328,3.2999324064126543,4.0000000000000000,0.0000000000000000,0.8249831016031636,0.0000000000000000
3.4083511242134419,0.5400696596560086,1.5399732134351927,0.3600267865648079,0.0004016429349116,-0.0025289281646462,3.3999303580401303,4.0000000000000000,0.0000000000000000,0.8499825895100326,0.0000000000000000
3.5083490726921043,0.5400924988891107,1.5395657436608439,0.3604342563391560,0.0000083489842024,-0.0053371119721595,3.4999283091269993,4.0000000000000000,0.0000000000000000,0.8749820772817498,0.0000000000000000
3.6083470179806083,0.5400620687634787,1.5399978289643976,0.3600021710356024,-0.0006627703489683,-0.0080855499890054,3.5999262590455610,4.0000000000000000,0.0000000000000000,0.8999815647613902,0.0000000000000000
3.7083449046077619,0.5399511073074773,1.5398925142915090,0.3601074857084915,-0.0015991027886235,-0.0106414835691407,3.6999242072362204,4.0000000000000000,0.0000000000000000,0.9249810518090551,0.0000000000000000
3.8083426143803418,0.5397337988518954,1.5397330732563592,0.3602669267436414,-0.0027891239359832,-0.0131594294568009,3.7999221531287537,4.0000000000000000,0.0000000000000000,0.9499805382821884,0.0000000000000000
3.9083399483162609,0.5393847945453926,1.5395393859369306,0.3604606140630697,-0.0042341601010802,-0.0157418904795007,3.8999200960990850,4.0000000000000000,0.0000000000000000,0.9749800240247712,0.0000000000000000
4.0083366031899370,0.5388779637122856,1.5390354275626443,0.3609645724373560,-0.0059499050595289,-0.0185737195322277,3.9999180353949448,4.0000000000000000,0.0000000000000000,0.9999795088487362,0.0000000000000000
4.1083321393416270,0.5381853445741387,1.5382319396520752,0.3617680603479248,-0.0079506927089543,-0.0214428660586389,4.0999159702312928,4.0000000000000000,0.0000000000000000,1.0249789925578232,0.0000000000000000
4.2083259554025281,0.5372783231672585,1.5373347695741908,0.3626652304258088,-0.0102380724926689,-0.0243056861766804,4.1999138999011310,4.0000000000000000,0.0000000000000000,1.0499784749752827,0.0000000000000000
4.3083172657409738,0.5361282676804169,1.5361326448900072,0.3638673551099928,-0.0128117379482877,-0.0271687052057429,4.2999118237336900,4.0000000000000000,0.0000000000000000,1.0749779559334225,0.0000000000000000
4.4083050760632094,0.5347065590486659,1.5346879048539963,0.3653120951460035,-0.0156717020257293,-0.0300317864399174,4.3999097410543468,4.0000000000000000,0.0000000000000000,1.0999774352635867,0.0000000000000000
4.5082881587692940,0.5329845823220218,1.5329602971868386,0.3670397028131613,-0.0188179737239116,-0.0328949877924664,4.4999076511888036,4.0000000000000000,0.0000000000000000,1.1249769127972009,0.0000000000000000
4.6082650283792157,0.5309337282761143,1.5309157274754108,0.3690842725245892,-0.0222505647418469,-0.0357583055875189,4.5999055534633859,4.0000000000000000,0.0000000000000000,1.1499763883658465,0.0000000000000000
4.7082339169666962,0.5285253953856371,1.5285243922627452,0.3714756077372542,-0.0259694891797679,-0.0386217917589720,4.6999034472048420,4.0000000000000000,0.0000000000000000,1.1749758618012105,0.0000000000000000
4.8081927495988257,0.5257309919815861,1.5257428297535442,0.3742571702464555,-0.0299747648990456,-0.0414854698305774,4.7999013317402790,4.0000000000000000,0.0000000000000000,1.1999753329350697,0.0000000000000000
4.9081391197870179,0.5225219388405060,1.5225216282148382,0.3774783717851621,-0.0342664152353345,-0.0443494259999693,4.8998992063969808,4.0000000000000000,0.0000000000000000,1.2249748015992452,0.0000000000000000
5.0080702649418072,0.5188696719189493,1.5188809790206028,0.3811190209793971,-0.0388444709179505,-0.0472137221799696,4.9998970705022403,4.0000000000000000,0.0000000000000000,1.2499742676255601,0.0000000000000000
5.1079830418406420,0.5147456455899234,1.5148544687082588,0.3851455312917410,-0.0437089708345517,-0.0500784598622240,5.0998949233831841,4.0000000000000000,0.0000000000000000,1.2749737308457960,0.0000000000000000
5.2078739021004621,0.5101213361422308,1.5102750036101167,0.3897249963898835,-0.0488599658078996,-0.0529437764980259,5.1998927643664521,4.0000000000000000,0.0000000000000000,1.2999731910916130,0.0000000000000000
5.3077388676516444,0.5049682455665934,1.5050939632395455,0.3949060367604546,-0.0542975200808022,-0.0558098032790909,5.2998905927779711,4.0000000000000000,0.0000000000000000,1.3249726481944928,0.0000000000000000
5.4075735062188519,0.4992579058351896,1.4993424091494645,0.4006575908505353,-0.0600217141913082,-0.0586767351636935,5.3998884079425684,4.0000000000000000,0.0000000000000000,1.3499721019856421,0.0000000000000000
5.5073729067928774,0.4929618834310284,1.4930719163864192,0.4069280836135809,-0.0660326478618836,-0.0615447611300801,5.4998862091836385,4.0000000000000000,0.0000000000000000,1.3749715522959096,0.0000000000000000
5.6071316551005674,0.4860517843876375,1.4862072521155532,0.4137927478844471,-0.0723304431288485,-0.0644141387289745,5.5998839958226760,4.0000000000000000,0.0000000000000000,1.3999709989556690,0.0000000000000000
5.7068438090513647,0.4784992595987541,1.4786996575174718,0.4213003424825285,-0.0789152481184694,-0.0672851324651784,5.6998817671788125,4.0000000000000000,0.0000000000000000,1.4249704417947031,0.0000000000000000
5.8065028741659894,0.4702760106416383,1.4705172858061306,0.4294827141938692,-0.0857872401560411,-0.0701580620757814,5.7998795225682800,4.0000000000000000,0.0000000000000000,1.4499698806420700,0.0000000000000000
5.9061017789695729,0.4613537959970546,1.4616408000297445,0.4383591999702547,-0.0929466293923875,-0.0730332646005831,5.8998772613039003,4.0000000000000000,0.0000000000000000,1.4749693153259751,0.0000000000000000
6.0056328503435363,0.4517044377588238,1.4520446158790883,0.4479553841209114,-0.1003936641024537,-0.0759111657574161,5.9998749826942337,4.0000000000000000,0.0000000000000000,1.4999687456735584,0.0000000000000000
6.1050877888093709,0.4412998286920387,1.4416992055108155,0.4583007944891845,-0.1081286326428266,-0.0787921417410565,6.0998726860432386,4.0000000000000000,0.0000000000000000,1.5249681715108097,0.0000000000000000
6.2044576437799916,0.4301119401640437,1.4305758142613936,0.4694241857386068,-0.1161518680318674,-0.0816767098789360,6.1998703706494185,4.0000000000000000,0.0000000000000000,1.5499675926623546,0.0000000000000000
6.3037327886753491,0.4181128300934734,1.4186461849999972,0.4813538150000031,-0.1244637579178427,-0.0845654457465243,6.2998680358045602,4.0000000000000000,0.0000000000000000,1.5749670089511401,0.0000000000000000
6.4029028959180403,0.4052746513755108,1.4058813662016094,0.4941186337983908,-0.1330647450248801,-0.0874588755928617,6.3998656807934360,4.0000000000000000,0.0000000000000000,1.5999664201983590,0.0000000000000000
6.5019569118572953,0.3915696613435551,1.3922522751395059,0.5077477248604944,-0.1419553323610003,-0.0903576791680621,6.4998633048925623,4.0000000000000000,0.0000000000000000,1.6249658262231406,0.0000000000000000
6.6008830315005769,0.3769702314430059,1.3777299272009516,0.5222700727990485,-0.1511360897655336,-0.0932625136839375,6.5998609073693109,4.0000000000000000,0.0000000000000000,1.6499652268423277,0.0000000000000000
6.6996686731057391,0.3614488577663291,1.3622856913272878,0.5377143086727121,-0.1606076586591496,-0.0961741539034395,6.6998584874808049,4.0000000000000000,0.0000000000000000,1.6749646218702012,0.0000000000000000
6.7983004525442672,0.3449781720146912,1.3458913939593591,0.5541086060406403,-0.1703707593976345,-0.0990934041338844,6.7998560444726621,4.0000000000000000,0.0000000000000000,1.6999640111181655,0.0000000000000000
6.8967641574502636,0.3275309532299887,1.3285166846262395,0.5714833153737597,-0.1804261961591547,-0.1020211368976422,6.8998535775779164,4.0000000000000000,0.0000000000000000,1.7249633943944791,0.0000000000000000
6.9950447211107294,0.3090801402314533,1.3101243217828114,0.5898756782171886,-0.1907748642828342,-0.1049583032968832,6.9998510860155063,4.0000000000000000,0.0000000000000000,1.7499627715038766,0.0000000000000000
7.0931261960565193,0.2895988447532447,1.2907308725734503,0.6092691274265500,-0.2014177562178929,-0.1079058948554534,7.0998485689890840,4.0000000000000000,0.0000000000000000,1.7749621422472710,0.0000000000000000
7.1909917273439801,0.2690603654635374,1.2701955023526323,0.6298044976473677,-0.2123559692982580,-0.1108650181944301,7.1998460256852956,4.0000000000000000,0.0000000000000000,1.7999615064213239,0.0000000000000000
7.2886235254394949,0.2474382026521698,1.2486006474593492,0.6513993525406513,-0.2235907130117751,-0.1138368102474705,7.2998434552722840,4.0000000000000000,0.0000000000000000,1.8249608638180710,0.0000000000000000
7.3860028387288708,0.2247060739535495,1.2260827830708556,0.6739172169291447,-0.2351233164923194,-0.1168225275065412,7.3998408568979315,4.0000000000000000,0.0000000000000000,1.8499602142244829,0.0000000000000000
7.4831099255476170,0.2008379308649594,1.2020831183478067,0.6979168816521938,-0.2469552368569192,-0.1198234736812390,7.4998382296880246,4.0000000000000000,0.0000000000000000,1.8749595574220062,0.0000000000000000
7.5799240257438703,0.1758079763799729,1.1769167510513843,0.7230832489486155,-0.2590880669647702,-0.1228410604755334,7.5998355727443814,4.0000000000000000,0.0000000000000000,1.8999588931860953,0.0000000000000000
7.6764233316741564,0.1495906835785970,1.1504579598980857,0.7495420401019146,-0.2715235456434939,-0.1258767961675609,7.6998328851425653,4.0000000000000000,0.0000000000000000,1.9249582212856413,0.0000000000000000
7.7725849585895608,0.1221608152990821,1.1227473737354678,0.7772526262645318,-0.2842635661166379,-0.1289322610494900,7.7998301659298397,4.0000000000000000,0.0000000000000000,1.9499575414824599,0.0000000000000000
7.8683849143925215,0.0934934450971752,1.0937827913248921,0.8062172086751079,-0.2973101859453378,-0.1320091622803327,7.8998274141226892,4.0000000000000000,0.0000000000000000,1.9749568535306723,0.0000000000000000
7.9637980686498606,0.0635639793694048,1.0635113552019915,0.8364886447980092,-0.3106656377795680,-0.1351092952276735,7.9998246287043191,4.0000000000000000,0.0000000000000000,1.9999561571760798,0.0000000000000000
8.0587981208363626,0.0323481808690360,1.0318866412425973,0.8681133587574035,-0.3243323403907574,-0.1382345877604146,8.0998218086218241,4.0000000000000000,0.0000000000000000,2.0249554521554560,0.0000000000000000
8.1533575677096373,-0.0001778063952475,0.9988532731663451,0.9011467268336549,-0.3383129100477169,-0.1413870628184706,8.1998189527835255,4.0000000000000000,0.0000000000000000,2.0499547381958814,0.0000000000000000
8.2474476697703079,-0.0340374306831898,0.9643733931279951,0.9356266068720051,-0.3526101743804613,-0.1445689256351296,8.2998160600552264,4.0000000000000000,0.0000000000000000,2.0749540150138066,0.0000000000000000
8.3410384166766498,-0.0692537045172635,0.9284078103566108,0.9715921896433892,-0.3672271822446120,-0.1477823964558092,8.3998131292584954,4.0000000000000000,0.0000000000000000,2.0999532823146239,0.0000000000000000
8.4340984916341188,-0.1058491747094147,0.8909024099206155,1.0090975900792785,-0.3821672267245602,-0.1510301408083367,8.4998101591627595,4.0000000000000000,0.0000000000000000,2.1249525397906899,0.0000000000000000
8.5265952344205864,-0.1438458910026763,0.8518641942676475,1.0481358057036887,-0.3974338373264925,-0.1543142224857557,8.5998071484933210,4.0000000000000000,0.0000000000000000,2.1499517871233302,0.0000000000000000
8.6184946035466190,-0.1832653715165512,0.8112271257222563,1.0887728708548676,-0.4130308575873696,-0.1576388603549352,8.6998040958954626,4.0000000000000000,0.0000000000000000,2.1749510239738656,0.0000000000000000
8.7097611357501492,-0.2241285692924286,0.7689339587635141,1.1310658239022715,-0.4289623077496003,-0.1610033690610542,8.7998010000121827,4.0000000000000000,0.0000000000000000,2.1999502500030457,0.0000000000000000
8.8003579077702430,-0.2664558272029910,0.7249586972860382,1.1750333437075924,-0.4452327659125430,-0.1644195977091710,8.8997978592763030,4.0000000000000000,0.0000000000000000,2.2249494648190757,0.0000000000000000
8.8902464862235089,-0.3102668543549711,0.6791922145215648,1.2206354019186063,-0.4618465751264882,-0.1678709842211396,8.9997946724078250,4.0000000000000000,0.0000000000000000,2.2499486681019563,0.0000000000000000
8.9793868953157450,-0.3555806537474622,0.6317117662020522,1.2661172399369824,-0.4788100423402675,-0.1714134079007286,9.0997914370980588,4.0000000000000000,0.0000000000000000,2.2749478592745147,0.0000000000000000
9.0677375645061389,-0.4024154967610565,0.5824491579406000,1.3026142488806192,-0.4961236410049161,-0.1748742251377312,9.1997881533766375,4.0000000000000000,0.0000000000000000,2.2999470383441594,0.0000000000000000
9.1552554281961296,-0.4507885893645537,0.5321851061062540,1.3179753857019578,-0.5138024825318972,-0.1787190544120172,9.2997848160853813,4.0000000000000000,0.0000000000000000,2.3249462040213453,0.0000000000000000
