# x_m,y_m,w_tr_right_m,w_tr_left_m,psi,kappa,s,velocity,acceleration,time,n
-0.0103685542346611,-0.0540684916606022,1.9983184026108871,1.9640041486209032,1.4058470249488288,0.0802237100956233,0.0000000000000000,5.7863779306777605,-1.7476970473361542,0.0000000000000000,0.0000000000000000
0.0882008240501056,-0.0380668030352358,1.9991189795692439,1.9331184614761996,1.4138832345350429,0.0807265842736356,0.0998597835683045,5.7561376163930209,-1.7270289283628109,0.0173029498051914,0.0000000000000000
0.1868962856019275,-0.0228623026239681,2.0006692113633151,1.9075850199365647,1.4220326950647895,0.0824919705986500,0.1997195400454930,5.7260980503676313,-1.7048632897900415,0.0346967325797895,0.0000000000000000
0.2857135477343488,-0.0084708526743980,1.9951585022909910,1.9585002647057137,1.4303440356030077,0.0839688221311655,0.2995792672982681,5.6962886615919128,-1.6787311900670279,0.0521816470326015,0.0000000000000000
0.3846480060884984,0.0050912957373484,1.9930187493001044,1.9408998574635674,1.4388092389507652,0.0855736212228953,0.3994389634693020,5.6667829800509146,-1.6526841639901895,0.0697578270163784,0.0000000000000000
0.4836947150937284,0.0178074993221595,1.9914336667111430,1.9135575363990864,1.4474355510899479,0.0871956142941496,0.4992986269895496,5.6375842675699417,-1.6256228690563550,0.0874252755931691,0.0000000000000000
0.5828483674663224,0.0296607201468041,1.9841418379299609,1.8822477486900107,1.4562262084180349,0.0888652339406004,0.5991582565840109,5.6087153768776332,-1.5978138348104449,0.1051839398207869,0.0000000000000000
0.6821032727381847,0.0406335242789157,1.9794384229431998,1.8652173331202770,1.4651855934187608,0.0905750076051680,0.6990178512709915,5.5801948079762207,-1.5691616289350998,0.1230336844406262,0.0000000000000000
0.7814533348137145,0.0507080816409528,1.9788801217153473,1.9167304808290382,1.4743178448381797,0.0923275238091993,0.7988774103550000,5.5520430940484209,-1.5396670734197913,0.1409742926027724,0.0000000000000000
0.8808920285605154,0.0598661672163402,1.9823814091115028,1.9208335105763219,1.4836272200526766,0.0941225705066904,0.8987369334135256,5.5242811006437327,-1.5093058589014359,0.1590054591347847,0.0000000000000000
0.9804123754482853,0.0680891637615366,1.9891359585783039,1.9111243914078047,1.4931179867813245,0.0959605664389540,0.9985964202780412,5.4969304763428219,-1.4780608522459189,0.1771267856635362,0.0000000000000000
1.0800069182603098,0.0753580661884130,1.9961935455001480,1.9038064544998523,1.5027944394354706,0.0978416273488648,1.0984558710096952,5.4700135257639033,-1.4459136736527682,0.1953377751082659,0.0000000000000000
1.1796676949135563,0.0816534877919179,2.0025204659429754,1.9073628946640109,1.5126608805597752,0.0997658002039833,1.1983152858702588,5.4435532315997737,-1.4128470943636420,0.2136378262429121,0.0000000000000000
1.2793862114365613,0.0869556685084074,2.0077692563551075,1.9719004924254391,1.5227216099825771,0.1017329835203667,1.2981746652890152,5.4175732313598539,-1.3788445891896177,0.2320262281751264,0.0000000000000000
1.3791534141692403,0.0912444854000270,2.0120658409597780,1.9879341590402222,1.5329809101530461,0.1037429306364172,1.3980340098263859,5.3920977998693695,-1.3438906695861150,0.2505021548243051,0.0000000000000000
1.4789596612655209,0.0944994655699309,2.0153331931921912,1.9846668068078088,1.5434430306407698,0.1057952296862792,1.4978933201351914,5.3671518231335211,-1.3079710385961349,0.2690646594241258,0.0000000000000000
1.5787946935984227,0.0966998017216572,2.0175076699718235,1.9824923300281763,1.5541121708938241,0.1078892887514637,1.5977525969205364,5.3427607665536279,-1.2710728246468186,0.2877126690972395,0.0000000000000000
1.6786476051879411,0.0978243705833338,2.0186066543050112,1.9813933456949886,1.5649924613941457,0.1100243186178288,1.6976118408993930,5.3189506357929384,-1.2331848290031828,0.3064449795510528,0.0000000000000000
1.7785068132949007,0.0978517544232429,2.0188268985422391,1.9815004653589960,1.5760879430762400,0.1121993152402618,1.7974710527610123,5.2957479297823626,-1.1942978072792272,0.3252602499508120,0.0000000000000000
1.8783600283488435,0.0967602658872307,2.0199456870360906,1.9907938322495196,1.5874025449570837,0.1144130414532414,1.8973302331293349,5.2731795849840921,-1.1544047827668416,0.3441569980321673,0.0000000000000000
1.9781942239049868,0.0945279763900930,2.0242330333024618,2.0732990809335243,1.5989400599148809,0.1166640081835918,1.9971893825285827,5.2512729100813225,-1.1135013954328892,0.3631335955218835,0.0000000000000000
2.0779956068542624,0.0911327482919317,2.0323392205968522,2.1086111329285200,1.6107041185719826,0.1189504552625105,2.0970485013531874,5.2300555102061939,-1.0715862888105083,0.3821882639418365,0.0000000000000000
2.1777495881413014,0.0865522710860541,2.0435064863534622,2.1291169468092672,1.6226981612510196,0.1212703320144604,2.1969075898431614,5.2095551997997127,-1.0286615373587282,0.4013190708778202,0.0000000000000000
2.2774407542777593,0.0807641018167410,2.0514758150253036,2.1485018158888312,1.6349254079920217,0.1236212778201770,2.2967666480659239,5.1897999031811413,-0.9847331166054792,0.4205239268008838,0.0000000000000000
2.3770528399722943,0.0737457099325779,2.0533617814511627,2.1570904668696556,1.6473888266399439,0.1260006028898546,2.3966256759054492,5.1708175419026112,-0.9398114181594815,0.4398005825347389,0.0000000000000000
2.4765687022334730,0.0654745267634319,2.0564062064485800,2.1067236703826806,1.6600910990374429,0.1284052695196435,2.4964846730594537,5.1526359079780892,-0.8939118113525283,0.4591466274680179,0.0000000000000000
2.5759702963373656,0.0559279997859936,2.0629588624441615,2.1097842535867133,1.6730345853869018,0.1308318741424288,2.5963436390451173,5.1352825221069498,-0.8470552526749828,0.4785594886146706,0.0000000000000000
2.6752386540870496,0.0450836518134995,2.0714634302787323,2.1326687795722550,1.6862212868789102,0.1332766305272752,2.6962025732136121,5.1187844760674599,-0.7992689437227177,0.4980364306292434,0.0000000000000000
2.7743538648259363,0.0329191452092582,2.0735193105570637,2.0911074738783042,1.6996528067214109,0.1357353545148861,2.7960614747734556,5.1031682585318627,-0.7505870370384399,0.5175745568860478,0.0000000000000000
2.8732950596999172,0.0194123511804513,2.0758997195252928,2.0958120850073150,1.7133303097451498,0.1382034507319809,2.8959203428224560,5.0884595636700602,-0.7010513897562629,0.5371708117319055,0.0000000000000000
2.9720403996938614,0.0045414241579267,2.0817038226161659,2.1251814600546357,1.7272544808044386,0.1406759017111630,2.9957791763877890,5.0746830820263513,-0.6507123581298532,0.5568219840211419,0.0000000000000000
3.0705670679947965,-0.0117151187909137,2.0906360736381400,2.0994636872970376,1.7414254822457709,0.1431472600629532,3.0956379744735361,5.0618622734167404,-0.5996296450412257,0.5765247120382613,0.0000000000000000
3.1688512672560378,-0.0293783136356856,2.0965160903412960,2.1094732948138004,1.7558429107479727,0.1456116436765191,3.1954967361149054,5.0500191214930217,-0.5478731344724365,0.5962754899086659,0.0000000000000000
3.2668682223521723,-0.0484686603372525,2.1028196195823021,2.0874329703259602,1.7705057539657842,0.1480627365458410,3.2953554604383397,5.0391738710671765,-0.4955239292751829,0.6160706755884462,0.0000000000000000
3.3645921892227446,-0.0690060293591874,2.1121332759939735,2.1092208034436792,1.7854123471833985,0.1504937880948788,3.3952141467268335,5.0293447451573936,-0.4426747464784309,0.6359065005185566,0.0000000000000000
3.4619964704012736,-0.0910095641026400,2.1189877068383840,2.1592127261617495,1.8005603312873126,0.1528976402714424,3.4950727944901208,5.0205476556325710,-0.3894327719958229,0.6557790809962216,0.0000000000000000
3.5590534378142502,-0.1144975797267769,2.1204863774206788,2.1400512756690020,1.8159466095025205,0.1552666755328630,3.5949314035399333,5.0127958598588345,-0.3359133467821807,0.6756844313703285,0.0000000000000000
3.6557345634106113,-0.1394874589182152,2.1227233851426455,2.1000459016195512,1.8315673150439795,0.1575930878149783,3.6947899740713708,5.0060997472437236,-0.2822677696970916,0.6956184788836381,0.0000000000000000
3.7520104581444156,-0.1659955452778828,2.1268375716983074,2.1151963593254028,1.8474177470830644,0.1598679756677395,3.7946485067525901,5.0004660771515459,-0.2285836814413056,0.7155770809522461,0.0000000000000000
3.8478509197807731,-0.1940370351006412,2.1305500648685443,2.1233302185143494,1.8634924373116932,0.1620848687089528,3.8945070028265345,4.9958992126975321,-0.1752605221292781,0.7355560419402659,0.0000000000000000
3.9432249899265215,-0.2236258684295447,2.1340156702194126,2.0947885924312857,1.8797847438845710,0.1642267230111659,3.9943654642303223,4.9923948613128060,-0.1216120164348873,0.7555511403352212,0.0000000000000000
4.0381010206019639,-0.2547746203702279,2.1403037371055729,2.1062632789072180,1.8962882297994048,0.1663147003426367,4.0942238937402529,4.9899617715290230,-0.0710843560708507,0.7755581252953438,0.0000000000000000
4.1324467505677953,-0.2874943937485973,2.1456705844939195,2.1408022647546239,1.9129913987258420,0.1682262576857806,4.1940822951530405,4.9885390387362589,-0.0117822992393741,0.7955728355833009,0.0000000000000000
4.2262293915024420,-0.3217947142836494,2.1472090038655676,2.1506003770026885,1.9298972595212862,0.1703745212977363,4.2939406735170227,4.9883031802813260,0.0000000000000000,0.8155908685784832,0.0000000000000000
4.3194159539879591,-0.3576828503068356,2.1502790388539088,2.1922802263509986,1.9469315148775310,0.1707981835101377,4.3937990418948702,4.9883031802813260,0.0000000000000000,0.8356093728210853,0.0000000000000000
4.4119798949021716,-0.3951478282853256,2.1556972425077476,2.1828318926003782,1.9637739682113746,0.1665325380506525,4.4936574803590208,4.9883031802813260,0.1186301605564250,0.8556278911138164,0.0000000000000000
4.5039078031354212,-0.4341476666419471,2.1617508710011020,2.1764515216956708,1.9802159894976896,0.1627773708933080,4.5935160188221058,4.9906774176765225,0.2187532979449821,0.8756416665656941,0.0000000000000000
4.5951898302296010,-0.4746364283729851,2.1664285685657210,2.1722115880978947,1.9962782312529201,0.1589256843159507,4.6933746603957589,4.9950525424315098,0.3182128749173196,0.8956419353437567,0.0000000000000000
4.6858178816407117,-0.5165688250980155,2.1709573954425343,2.1710206453109411,2.0119594817944497,0.1551461532287194,4.7932334086238448,5.0014100592103121,0.4125885856207551,0.9156207522928013,0.0000000000000000
4.7757854995182223,-0.5599003313316316,2.1789199836151951,2.1753006327300146,2.0272663355297529,0.1514266124469817,4.8930922675149198,5.0096410880494462,0.5026298453741256,0.9355704773360914,0.0000000000000000
4.8650877457266510,-0.6045872815232046,2.1891694673492239,2.1856042589256206,2.0422012467659449,0.1476961949357501,4.9929512415497808,5.0196501902453283,0.5906938090806647,0.9554839430564408,0.0000000000000000
4.9537210864152952,-0.6505869510339832,2.1917414939816542,2.1911799061805715,2.0567800136208203,0.1442932072000241,5.0928103356610839,5.0313875153653056,0.6675008618076073,0.9753543478914684,0.0000000000000000
5.0416832792222914,-0.6978576222828944,2.1887685858672574,2.1941577642209298,2.0709731188859832,0.1399713430424934,5.1926695551840591,5.0446181778164245,0.7689245333712321,0.9951755394556111,0.0000000000000000
5.1289732639950119,-0.7463586373202623,2.1857108066383724,2.2002297027907955,2.0849223663020657,0.1394088711224886,5.2925289057791671,5.0598163177208422,0.7609948901256479,1.0149409900880466,0.0000000000000000
5.2155841376116081,-0.7960623052754450,2.1856941900088542,2.1893789384808566,2.0985450246311061,0.1334301214961402,5.3923882971093224,5.0748129169596696,0.9094039203318273,1.0346475603073964,0.0000000000000000
5.3015224332968369,-0.8469199058574455,2.1878874443465035,2.1419927687524085,2.1117240112823445,0.1305227017059740,5.4922476291831961,5.0926762196589825,0.9665947202251999,1.0542904299937232,0.0000000000000000
5.3867909154328304,-0.8988925937260283,2.1926511227258785,2.1593494603169714,2.1245903433475553,0.1271683902686307,5.5921069018125387,5.1115944645147868,1.0363870651828282,1.0738624848166554,0.0000000000000000
5.4713923093230035,-0.9519441642696348,2.1953821045722655,2.1810314913746449,2.1371328949160633,0.1240378984677993,5.6919661276522353,5.1318012032479468,1.0991101717479959,1.0933597744027572,0.0000000000000000
5.5553300514372586,-1.0060395779373166,2.1962339245706546,2.2029397941206068,2.1493651140171761,0.1209529725378680,5.7918253201740901,5.1531442923853490,1.1602365440241360,1.1127782910228508,0.0000000000000000
5.6386082098353487,-1.0611449570256508,2.1969401384688330,2.1899494449099470,2.1612939738779993,0.1179620885186087,5.8916844933663732,5.1755788683132966,1.2184529658362573,1.1321144996981405,0.0000000000000000
5.7212314101618045,-1.1172275765681663,2.1964321562055180,2.1694530099434801,2.1729282259360962,0.1150524187813718,5.9915436614328863,5.1990349124740751,1.2742710550663585,1.1513651764320429,0.0000000000000000
5.8032047671249689,-1.1742558501917921,2.1950617714987608,2.1794768208988038,2.1842761407771802,0.1122271524488032,6.0914028384989001,5.2234528177212676,1.3277008013755345,1.1705274301378850,0.0000000000000000
5.8845338213199412,-1.2321993117273951,2.1965268490653425,2.1571815246436392,2.1953460523851258,0.1094843756094811,6.1912620383303461,5.2487737251897331,1.3788930810190752,1.1895986752875696,0.0000000000000000
5.9652244812142952,-1.2910285932856420,2.1975522391339730,2.1690616111756342,2.2061462236847516,0.1068245818514702,6.2911212740716929,5.2749422780463959,1.4279106847334948,1.2085766172446957,0.0000000000000000
6.0452829700847097,-1.3507154004363113,2.1814211953044413,2.1890275448691972,2.2166846537269409,0.1042419938969636,6.3909805580069161,5.3019049702652330,1.4750002741779979,1.2274592353993945,0.0000000000000000
6.1247157776708221,-1.4112324850596363,2.1797149453138465,2.1923691779018886,2.2269698223318803,0.1017520282319180,6.4908399013470310,5.3296136287103391,1.5197271576275955,1.2462447630567015,0.0000000000000000
6.2035296162983133,-1.4725536163728949,2.1942663803820235,2.1913670063771984,2.2370077649864415,0.0992902967146294,6.5906993140467769,5.3580126496849632,1.5641967036917197,1.2649316838188185,0.0000000000000000
6.2817313812152102,-1.5346535505745666,2.1577013935088347,2.1893969788038548,2.2468129149742899,0.0970894356265265,6.6905588046521745,5.3870863485059042,1.6009139375059986,1.2835186676376202,0.0000000000000000
6.3593281148826337,-1.5975079994921904,2.1774167035289831,2.1931007679927679,2.2563675523899018,0.0942727224439356,6.7904183801799682,5.4166809485856220,1.6585854977946561,1.3020047332445086,0.0000000000000000
6.4363269749627223,-1.6610935985685500,2.1939730272620346,2.1903541006505063,2.2657731052313803,0.0941033868868078,6.8902780460292616,5.4471721182605339,1.6292992132146304,1.3203885727966176,0.0000000000000000
6.5127282543624432,-1.7253960549684388,2.1922318966431726,2.1838730998604601,2.2750078999071213,0.0908526834681255,6.9901377545856853,5.4769596287649041,1.7040587785192665,1.3386709792832683,0.0000000000000000
6.5885425055537343,-1.7903895492113082,2.1516980610749035,2.1827234147674597,2.2839404339833314,0.0880496029381472,7.0899974310201408,5.5079415657409667,1.7645436231737095,1.3568522400276801,0.0000000000000000
6.6637812466716371,-1.8560483479768148,2.1656837188589027,2.1869356570085881,2.2926429867302671,0.0862466531904408,7.1898570626053617,5.5398405792828918,1.7917050978619120,1.3749300098957615,0.0000000000000000
6.7384518995086315,-1.9223524489100650,2.1805575624382088,2.1907909147647535,2.3011562021039600,0.0842575536494104,7.2897166650263090,5.5720437508445277,1.8262343415832361,1.3929034875624071,0.0000000000000000
6.8125618844770059,-1.9892826154038281,2.1922759542256012,2.1914154881270478,2.3094772243503736,0.0823973736997810,7.3895762517413335,5.6046771159912616,1.8571944295460088,1.4107726976652259,0.0000000000000000
6.8861186057684920,-2.0568203450659110,2.1982973609193874,2.1888409921845682,2.3176145724800845,0.0805788843776631,7.4894358340309761,5.6376699880754249,-0.9500483813311510,1.4285375969990175,0.0000000000000000
6.9591294386799181,-2.1249478387995300,2.2067768505231951,2.1904701371451365,2.3255734366615131,0.0788226380436462,7.5892954210762094,5.6208166680991223,-1.9650534314032206,1.4462770303873347,0.0000000000000000
7.0316017189295419,-2.1936479705700429,2.2187438860913380,2.1970955069028877,2.3333596174839695,0.0771203159238081,7.6891550200633167,5.5857963730415907,-2.0590582096642227,1.4640985788998981,0.0000000000000000
7.1035427338025121,-2.2629042579126852,2.2322602901740329,2.2068287754641305,2.3409784713674151,0.0754713428818787,7.7890146363125270,5.5488636310312112,-2.1513132147244756,1.4820352947426243,0.0000000000000000
7.1749597149775779,-2.3327008332195942,2.2394337654525134,2.2117353038181919,2.3484351946905857,0.0738730920822112,7.8888742734274935,5.5100116952593527,-2.2418488736260453,1.5000949317615115,0.0000000000000000
7.2458598329006039,-2.4030224158301747,2.2421393835012648,2.2131867972539765,2.3557347487088109,0.0723234835408483,7.9887339334627434,5.4692310564789119,-2.3306813312163985,1.5182855597115932,0.0000000000000000
7.3162501925835564,-2.4738542849364515,2.2416425460731948,2.2136913359158981,2.3628818849986648,0.0708203997992743,8.0885936171062642,5.4265095732280040,-2.4178323421627277,1.5366156002361000,0.0000000000000000
7.3861378307204228,-2.5451822533042545,2.2406570400220875,2.2146768419670053,2.3698811292631738,0.0693614359054918,8.1884533238744499,5.3818322243385817,-2.5033376730608659,1.5550938661234108,0.0000000000000000
7.4555297140239203,-2.6169926418017311,2.2388997515576872,2.2164341304314057,2.3767368319723605,0.0679454886624124,8.2883130523167239,5.3351806764594976,-2.5871914396134366,1.5737296052732326,0.0000000000000000
7.5244327386989305,-2.6892722547183907,2.2366480047571535,2.2186858772319393,2.3834529933732598,0.0665666466848374,8.3881728002272169,5.2865338626130880,-2.6695534998832868,1.5925325485350108,0.0000000000000000
7.5928537309803357,-2.7620083558507758,2.2341217070188821,2.2177853160750747,2.3900339240443973,0.0652370402765131,8.4880325648609904,5.2358646193540599,-2.7499864942133070,1.6115129672684221,0.0000000000000000
7.6607994486743847,-2.8351886453243713,2.2388977116090243,2.1767621331565734,2.3964817872145465,0.0639015221399026,8.5878923431523457,5.1831508012955698,-2.8302443444587682,1.6306817225220984,0.0000000000000000
7.7282765836539991,-2.9088012371157048,2.2462215785997470,2.1798455335650067,2.4028057794282955,0.0627561320699930,8.6877521319328892,5.1283327723638363,-2.9040863069818976,1.6500503784613143,0.0000000000000000
7.7952917515707263,-2.9828346495335896,2.2515312704354393,2.1948264363124528,2.4089884202174039,0.0610704591892029,8.7876119280729963,5.0714686325485614,-2.8816374402992686,1.6696311118846165,0.0000000000000000
7.8618453796929257,-3.0572832263878928,2.2527853211739286,2.2074140749374624,2.4153571914882903,0.0664839779467034,8.8874717098265084,5.0144067165679633,-2.7139073975039327,1.6894330186694868,0.0000000000000000
7.9279005584894762,-3.1321743370363722,2.2543701160258642,2.2217533028713565,2.4223739560224224,0.0740487203100734,8.9873314369441353,4.9600659889650052,-2.5666354035985162,1.7094560775450169,0.0000000000000000
7.9934007648811853,-3.2075512231962739,2.2589877603814523,2.2401977764503207,2.4301202056899696,0.0810943777160489,9.0871910984923261,4.9081206107272353,-2.4221890027540280,1.7296947831145499,0.0000000000000000
8.0582882615836553,-3.2834560959021526,2.2597768621101570,2.2567256137872933,2.4385745731074584,0.0882312171297014,9.1870506845560023,4.8585893371512148,-2.2858916644647596,1.7501437544870164,0.0000000000000000
8.1225045831915033,-3.3599295173187467,2.2373952821116507,2.2517027800330127,2.4477351752919869,0.0952392292046572,9.2869101865776056,4.8113775928004143,-2.1570744146028478,1.7707972898599866,0.0000000000000000
