# x_m,y_m,w_tr_right_m,w_tr_left_m,psi,kappa,s,velocity,acceleration,time,n
-0.0350455492185917,0.1798640580034896,2.2327672615879415,1.7295552896438473,1.6012153844449091,0.1490792306024497,0.0000000000000000,4.6273446584592035,1.1823230805739764,0.0000000000000000,0.0000000000000000
0.0648236719157530,0.1760826327396744,2.2121567059464216,1.7311990025035320,1.6160458041239303,0.1477076190330091,0.0999407850029529,4.6528102456225602,1.1761340438932215,0.0215386027573732,0.0000000000000000
0.1646261782159374,0.1708273113275723,2.1897655130122877,1.7426798660172766,1.6307422915543643,0.1463989538312339,0.1998815608001362,4.6780049892391737,1.1693323370449571,0.0429602627691983,0.0000000000000000
0.2643411026044427,0.1641122894371610,2.1659838913504754,1.7582941431338301,1.6453108666872940,0.1451478028043646,0.2998223315836058,4.7029202235929137,1.1620170617634373,0.0642674938825564,0.0000000000000000
0.3639481176457050,0.1559514375508425,2.1413593795443386,1.7752996300766850,1.6597579345697315,0.1439673149977856,0.3997630987856875,4.7275495114052815,1.1538255061011480,0.0854627831969759,0.0000000000000000
0.4634274003990164,0.1463582240958900,2.1164139835210718,1.7934729586978824,1.6740900960744236,0.1428482471520962,0.4997038684520532,4.7518788706225648,1.1449580860903439,0.1065486051766735,0.0000000000000000
0.5627595892073811,0.1353457489119612,2.0915719540226867,1.8135880433231581,1.6883133395112433,0.1417875944022428,0.5996446426292490,4.7758987422387627,1.1354591727658374,0.1275274269414236,0.0000000000000000
0.6619257583128477,0.1229267739075422,2.0671151732450928,1.8364060218667537,1.7024333107451173,0.1407815035622260,0.6995854252718439,4.7996006243111164,1.1253967035916150,0.1484016975808681,0.0000000000000000
0.7609073866009549,0.1091137512758035,2.0431664474336113,1.8622992065801238,1.7164552569810310,0.1398258522193216,0.7995262194091227,4.8229775277768505,1.1148475299651541,0.1691738425419547,0.0000000000000000
0.8596863333805002,0.0939188552370827,2.0197052742798638,1.8912523437176125,1.7303840203032397,0.1389166560456506,0.8994670278534402,4.8460241188333182,1.1038868436769858,0.1898462577709574,0.0000000000000000
0.9582448164943417,0.0773540142051054,1.9966090088834341,1.9230026104899889,1.7442240422760165,0.1380498849143758,0.9994078531057667,4.8687366415322533,1.0925929696369707,0.2104213038719517,0.0000000000000000
1.0565653935141943,0.0594309436791620,1.9737051760456359,1.9571850949853649,1.7579793602668770,0.1372214812649613,1.0993486972216471,4.8911129420531640,1.0810468565615112,0.2309013006710759,0.0000000000000000
1.1546309461249296,0.0401611795442497,1.9508209578542763,1.9934330200227162,1.7716536146063504,0.1364275581886207,1.1992895618299946,4.9131524835866580,1.0693266920573208,0.2512885220016990,0.0000000000000000
1.2524246672931767,0.0195561105997058,1.9278200854842016,2.0314310559033917,1.7852500575940955,0.1356642381897249,1.2992304481885930,4.9348562534075882,1.0575121632394566,0.2715851909076004,0.0000000000000000
1.3499300510191896,-0.0023729893205369,1.9046222383859501,2.0709214071356810,1.7987715632502974,0.1349278296551821,1.3991713571241686,4.9562267598855012,1.0456795369310483,0.2917934752382970,0.0000000000000000
1.4471308846150885,-0.0256149305206902,1.8812059226058495,2.1116785771190583,1.8122206413116166,0.1342147350136042,1.4991122890914512,4.9772679323425164,1.0339040603319927,0.3119154836681154,0.0000000000000000
1.5440112431261477,-0.0501585778316709,1.8575986682636780,2.1534677060444141,1.8255994527517148,0.1335215734236479,1.5990532441026835,4.9979850728752968,1.0222564240995200,0.3319532621503162,0.0000000000000000
1.6405554858702078,-0.0759928232295239,1.8338600053188181,2.1960034609806529,1.8389098379573152,0.1328453107293059,1.6989942218960816,5.0183847403167947,1.0107989548072125,0.3519087908812483,0.0000000000000000
1.7367482544092081,-0.1031065614680437,1.8100627689778246,2.2389254437972532,1.8521533436583455,0.1321831046101405,1.7989352220935213,5.0384745626953782,0.9995898253135801,0.3717839819694852,0.0000000000000000
1.8325744716581494,-0.1314886676584996,1.7862772025886786,2.2818005062502014,1.8653312354300338,0.1315321715705406,1.8988762440216944,5.0582631382946133,0.9886867287198576,0.3915806776721723,0.0000000000000000
1.9280193426513716,-0.1611279762276213,1.7625605544665757,2.3241535566235831,1.8784445151302611,0.1308900182748882,1.9988172866987071,5.0777600121833686,0.9781401252853665,0.4113006489455803,0.0000000000000000
2.0230683565333547,-0.1920132626954036,1.7389529187808326,2.3655193109707917,1.8914939526020700,0.1302544948995910,2.0987583491311947,5.0969755216192842,0.9679915532970015,0.4309455944285290,0.0000000000000000
2.1177072887549202,-0.2241332283886587,1.7154784149991458,2.4055010936970804,1.9044801078991327,0.1296235531522232,2.1986994302148708,5.1159206124234293,0.9582805650047017,0.4505171400061920,0.0000000000000000
2.2119222037178701,-0.2574764870543398,1.6921497542618742,2.4438211789829256,1.9174033543705153,0.1289955061156592,2.2986405283673448,5.1346067947437222,0.9490369936972781,0.4700168387402482,0.0000000000000000
2.3056994578514112,-0.2920315557550586,1.6689739283061777,2.4803504049194727,1.9302639410508025,0.1283695532038313,2.3985816418579304,5.1530459501557067,0.9402652487175984,0.4894461713526144,0.0000000000000000
2.3990257013706935,-0.3277868532832916,1.6459571100257160,2.5151113142957127,1.9430620695115053,0.1277455432622891,2.4985227696820291,5.1712498395685174,0.9319511734298800,0.5088065480523154,0.0000000000000000
2.4918878778023625,-0.3647307030064258,1.6231076464801195,2.5482564253800875,1.9557979014428049,0.1271228274271932,2.5984639115806085,5.1892297532649314,0.9240964061114373,0.5280993116745148,0.0000000000000000
2.5842732240137583,-0.4028513317014866,1.6004369424282310,2.5800290990734545,1.9684714860355550,0.1264998041782379,2.6984050669006576,5.2069968270662299,0.9167322190277364,0.5473257405230607,0.0000000000000000
2.6761692737225617,-0.4421368620635753,1.5779587834005586,2.6107174248789793,1.9810827165131992,0.1258749566272575,2.7983462338335761,5.2245626163868550,0.9098880042816266,0.5664870495247831,0.0000000000000000
2.7675638626436094,-0.4825753072309510,1.5556880517561518,2.6406113074025970,1.9936314038656078,0.1252481568557874,2.8982874101904819,5.2419390579773957,0.9035511789823103,0.5855843906357473,0.0000000000000000
2.8584451299129263,-0.5241545761988617,1.5336398016185162,2.6699701566950362,2.0061174075430990,0.1246205004003924,2.9982285946360490,5.2591376705329083,0.8976720675806520,0.6046188548205915,0.0000000000000000
2.9488015138159986,-0.5668624882947573,1.5118293427774465,2.6990044811841027,2.0185406994806812,0.1239931406644913,3.0981697866823223,5.2761688629743091,0.8921999591050289,0.6235914764008778,0.0000000000000000
3.0386217454787197,-0.6106867884644047,1.4902734764147034,2.7278705764224536,2.0309013433019949,0.1233667589651179,3.1981109859011840,5.2930419361961949,0.8870996528019603,0.6425032383323749,0.0000000000000000
3.1278948438361551,-0.6556151592812667,1.4689925033328763,2.7566744707057480,2.0431994594065368,0.1227418108353324,3.2980521915902981,5.3097653955769468,0.8823437179454057,0.6613550768241721,0.0000000000000000
3.2166101114037660,-0.7016352309872900,1.4480122558581134,2.7854799392399920,2.0554352207565070,0.1221188931822522,3.3979934028067942,5.3263471118420238,0.8779008450175491,0.6801478850323934,0.0000000000000000
3.3047571291324780,-0.7487345925209058,1.4273652887038180,2.8143158210973560,2.0676088835637252,0.1214990753512249,3.4979346184855125,5.3427942606112699,0.8737252347439782,0.6988825164689509,0.0000000000000000
3.3923257491328682,-0.7969008062000927,1.4070905152716402,2.8431796817789081,2.0797208378900565,0.1208839656348392,3.5978758379545677,5.3591130648739931,0.8697543760629814,0.7175597889269278,0.0000000000000000
3.4793060845549690,-0.8461214254343781,1.3872309364170377,2.8720373278707370,2.0917716254181733,0.1202749883557834,3.6978170612207837,5.3753085004186394,0.8659322932964107,0.7361804891963032,0.0000000000000000
3.5656884983527477,-0.8963840099769709,1.3678295732580701,2.9008199445517233,2.1037618950698946,0.1196728658551978,3.7977582880415106,5.3913844368718822,0.8622263473444791,0.7547453776727975,0.0000000000000000
3.6514635940007008,-0.9476761369260928,1.3489241619846841,2.9294219716601337,2.1156923828188505,0.1190786197372963,3.8976995173734550,5.4073440863677558,0.8585945432426378,0.7732551918822875,0.0000000000000000
3.7366222060981880,-0.9999854142249905,1.3305414997387317,2.9577028810048271,2.1275639722583279,0.1184941814515938,3.9976407486341476,5.4231898417801219,0.8549654022844682,0.7917106497431327,0.0000000000000000
3.8211553866936203,-1.0532994983623802,1.3126924879626387,2.9854948386712024,2.1393777199004660,0.1179210775028992,4.0975819823116879,5.4389227475759343,0.8512813185542827,0.8101124537854648,0.0000000000000000
3.9050543906609918,-1.1076061077148751,1.2953688553608695,3.0126163342356951,2.1511347792946971,0.1173597242770072,4.1975232184761540,5.4545427735694778,0.8475219983407422,0.8284612952942515,0.0000000000000000
3.9883106652699638,-1.1628930293907496,1.2785422388572651,3.0388899553798270,2.1628363634785703,0.1168108984669908,4.2974644560618414,5.4700495119778898,0.8436553412554242,0.8467578568451856,0.0000000000000000
4.0709158397858030,-1.2191481290769064,1.2621658241720246,3.0641612080750362,2.1744838273041109,0.1162766606874559,4.3974056942845676,5.4854419678241166,0.8396063385911652,0.8650028143456284,0.0000000000000000
4.1528617089402902,-1.2763593678027796,1.2461782254502809,3.0883149605400422,2.1860787354469480,0.1157591465572192,4.4973469335606202,5.5007177875557094,0.8352978514005100,0.8831968405570374,0.0000000000000000
4.2341402137114548,-1.3345148174702113,1.2305088361745014,3.1112867169718621,2.1976228080851534,0.1152593316788968,4.5972881746168399,5.5158732387694425,0.8306925715088131,0.9013406094992447,0.0000000000000000
4.3147434265514351,-1.3936026682474527,1.2150836144242363,3.1330672014241285,2.2091178234355460,0.1147774034598979,4.6972294175028511,5.5309039480249913,0.8257803500750793,0.9194347995414742,0.0000000000000000
4.3946635412974215,-1.4536112306353661,1.1998302625298092,3.1537001851843387,2.2205655907045272,0.1143137958162521,4.7971706617460352,5.5458053980999535,0.8205426647349976,0.9374800946052372,0.0000000000000000
4.4738928627713399,-1.5145289385356144,1.1846820493778332,3.1732746960960059,2.2319679893157360,0.1138694795527027,4.8971119070706628,5.5605727785099432,0.8149425805336991,0.9554771848781226,0.0000000000000000
4.5524237934559411,-1.5763443548252714,1.1695800255354938,3.1919134698468623,2.2433269957281281,0.1134454247452187,4.9970531536370988,5.5752006582600240,0.8089434132568126,0.9734267681978469,0.0000000000000000
4.6302488193091902,-1.6390461762435677,1.1544739370857946,3.2097597092457231,2.2546446640501765,0.1130422150911493,5.0969944016692841,5.5896829971367437,0.8025222003516421,0.9913295518034562,0.0000000000000000
4.7073604973430481,-1.7026232355829014,1.1393225655355614,3.2269640045169061,2.2659230963959902,0.1126602279341074,5.1969356512283849,5.6040133967973107,0.7956633968886521,1.0091862536545551,0.0000000000000000
4.7837514447541674,-1.7670645021005078,1.1240943536484518,3.2436727909824672,2.2771644307314229,0.1122998034288070,5.2968769023550424,5.6181852356615307,0.7883529228380141,1.0269976031770256,0.0000000000000000
4.8594143283727051,-1.8323590809647037,1.1087689625210531,3.2600191757709274,2.2883708364947744,0.1119612313629495,5.3968181550314274,5.6321916959141447,0.7805786462973540,1.0447643417110717,0.0000000000000000
4.9343418542813726,-1.8984962123138918,1.0933399262757746,3.2761165464410649,2.2995445201863696,0.1116449637377853,5.4967594091855245,5.6460257984956090,0.7723228266640145,1.0624872228673599,0.0000000000000000
5.0085267570428647,-1.9654652710314149,1.0778180199674532,3.2920551465071948,2.3106877355795987,0.1113514939081743,5.5967006650473712,5.6596803040218733,0.7635664640782005,1.0801670130468677,0.0000000000000000
5.0819617889041062,-2.0332557655439700,1.0622345210606827,3.3079016467766027,2.3218027559094323,0.1110807175402040,5.6966419230478502,5.6731476915119208,0.7543123085087914,1.0978044920662033,0.0000000000000000
5.1546397119277216,-2.1018573325374117,1.0466433164147819,3.3237015175110813,2.3328918204523070,0.1108320601998176,5.7965831832409371,5.6864205415261084,0.7445802428501536,1.1154004531349375,0.0000000000000000
5.2265532933694194,-2.1712597293484639,1.0311208100152676,3.3394837125162726,2.3439571263981720,0.1106052547130568,5.8965244453847108,5.6994918329238446,0.7343790517020826,1.1329557019120218,0.0000000000000000
5.2976953005992504,-2.2414528279195229,1.0157628302223169,3.3552668834288077,2.3550008573583296,0.1104002958627027,5.9964657095336884,5.7123547417110636,0.7237081118031149,1.1504710555395612,0.0000000000000000
5.3680584947018541,-2.3124266093148815,1.0006781794415749,3.3710660900923175,2.3660251756704955,0.1102167627138029,6.0964069759348947,5.7250024720995301,0.7125822552837211,1.1679473421559357,0.0000000000000000
5.4376356259428738,-2.3841711558880427,0.9859790136568539,3.3868988027422016,2.3770321903332361,0.1100540095724539,6.1963482444615581,5.7374285228306787,0.7010247177989773,1.1853854002032851,0.0000000000000000
5.5064194310502481,-2.4566766430712148,0.9717687902414949,3.4027890003354604,2.3880239728547208,0.1099119322654004,6.2962895147992839,5.7496268275655051,0.6890388104584295,1.2027860772765924,0.0000000000000000
5.5744026284916979,-2.5299333339965071,0.9581290304875619,3.4187684565284924,2.3990025963416977,0.1097906660480192,6.3962307870529775,5.7615914022915362,0.6766192072466538,1.2201502294033366,0.0000000000000000
5.6415779124699643,-2.6039315743937488,0.9451065567016494,3.4348748904976674,2.4099701127603406,0.1096896519957749,6.4961720616068312,5.7733161925256997,0.6637867725145592,1.2374787209811546,0.0000000000000000
5.7079379509072448,-2.6786617834162754,0.9327030915678871,3.4511474505076296,2.4209284817296806,0.1096076015546224,6.5961133385745976,5.7847955239782056,0.6505897834852078,1.2547724242121181,0.0000000000000000
5.7734753886891941,-2.7541144408443059,0.9208690555949481,3.4676207984763372,2.4318795322011968,0.1095431892395933,6.6960546176537381,5.7960245690018386,0.6370777865124120,1.2720322172624778,0.0000000000000000
5.8381828521156054,-2.8302800746252292,0.9095030048369920,3.4843196271781012,2.4428249905756747,0.1094956886340904,6.7959958983756206,5.8069993580402581,0.6232776043963670,1.2892589818283879,0.0000000000000000
5.9020529503043484,-2.9071492520341984,0.8984573976750312,3.5012555447397684,2.4537665385458944,0.1094649309048071,6.8959371805275484,5.8177163793124089,0.6091950202458836,1.3064536013631765,0.0000000000000000
5.9650782733614687,-2.9847125734607336,0.8875503155454755,3.5184278003424070,2.4647058298426394,0.1094505247131261,6.9958784641753500,5.8281722121734125,0.5948445175435898,1.3236169604083363,0.0000000000000000
6.0272513914715615,-3.0629606650831445,0.8765815195945709,3.5358283886406001,2.4756444589832309,0.1094516767454291,7.0958197492285287,5.8383636736444071,0.5802560579636594,1.3407499441888380,0.0000000000000000
6.0885648567881452,-3.1418841702265223,0.8653501104179564,3.5534508574722619,2.4865839483808236,0.1094677376572821,7.1957610354582178,5.8482880793683147,0.5654540914385873,1.3578534377029534,0.0000000000000000
6.1490112056069419,-3.2214737412525434,0.8536705897464474,3.5713008998489664,2.4975257551302450,0.1094980494395004,7.2957023227304445,5.8579431440450982,0.5504634363329823,1.3749283246353652,0.0000000000000000
6.2085829607123006,-3.3017200313081583,0.8413846297629564,3.5894059296349732,2.5084712631822113,0.1095418064351995,7.3956436108651422,5.8673269832745225,0.5353146084447056,1.3919754863722764,0.0000000000000000
6.2672726348343915,-3.3826136858832445,0.8283670931816448,3.6078207228067787,2.5194217807511885,0.1095982987856205,7.4955848996254471,5.8764382062931348,0.5200343571076514,1.4089958009216663,0.0000000000000000
6.3250727341703072,-3.4641453349345865,0.8145263037605273,3.6266269178080783,2.5303785463255974,0.1096668409538809,7.5955261887920020,5.8852758474435296,0.5046484447743546,1.4259901418331944,0.0000000000000000
6.3819757617716313,-3.5463055853877941,0.7997998778651516,3.6459254847179565,2.5413427343014052,0.1097468359927250,7.6954674780809178,5.8938393456997913,0.4891791402160739,1.4429593772384293,0.0000000000000000
6.4379742203878267,-3.6290850146290210,0.7841483253085109,3.6658229094985306,2.5523154749972985,0.1098379987697907,7.7954087672105512,5.9021284822253728,0.4736365422501094,1.4599043690504681,0.0000000000000000
6.4930606136498952,-3.7124741655112001,0.7675488605471360,3.6864134162743611,2.5632978739333168,0.1099401179084317,7.8953500560128980,5.9101431720059630,0.4580279868218523,1.4768259725705739,0.0000000000000000
6.5472274468368745,-3.7964635416434653,0.7499913614940795,3.7077605628577222,2.5742910038640088,0.1100527489563148,7.9952913443805853,5.9178834162081611,0.4423700779502132,1.4937250364376224,0.0000000000000000
6.6004672294436020,-3.8810436016358469,0.7314773912586601,3.7298815754920431,2.5852958773018266,0.1101751309293801,8.0952326321465851,5.9253494579096815,0.4266918430434773,1.5106024024116400,0.0000000000000000
6.6527724801981334,-3.9662047522059840,0.7120220492693982,3.7527367683614963,2.5963134288711580,0.1103064663665031,8.1951739190250521,5.9325419899179117,0.4110235450230265,1.5274589046520575,0.0000000000000000
6.7041357326425581,-4.0519373415554050,0.6916575117437970,3.7762246911379664,2.6073445297947484,0.1104462840427222,8.2951152046793108,5.9394621730579882,0.3953823375578868,1.5442953687034995,0.0000000000000000
6.7545495387210357,-4.1382316544265549,0.6704367056386665,3.8001819159602372,2.6183900209883606,0.1105944485656596,8.3950564888276666,5.9461114135438926,0.3797720331206849,1.5611126107861226,0.0000000000000000
6.8040064699472120,-4.2250779087445398,0.6484357222645400,3.8243852666997666,2.6294507358335881,0.1107509443940138,8.4949977712657798,5.9524911381979706,0.3641918239598615,1.5779114377077739,0.0000000000000000
6.8524991176192831,-4.3124662528208093,0.6257542090772941,3.8485542236625441,2.6405275013232408,0.1109156591594366,8.5949390518191127,5.9586027174860865,0.3486449401239515,1.5946926471859677,0.0000000000000000
6.9000200936886218,-4.4003867622201307,0.6025138006728508,3.8723522567589228,2.6516211273083532,0.1110883622708297,8.6948803302761082,5.9644475340906196,0.3331394366998169,1.6114570281704017,0.0000000000000000
6.9465620324145334,-4.4888294363623231,0.5788553263512615,3.8953876146516060,2.6627324072920167,0.1112689572577119,8.7948216063825733,5.9700270642410000,0.3176780608356952,1.6282053609575737,0.0000000000000000
6.9921175911053037,-4.5777841957427050,0.5549358256707670,3.9172159889855473,2.6738621398028881,0.1114576412192919,8.8947628798587992,5.9753427891360982,0.3022519631731614,1.6449384173137929,0.0000000000000000
7.0366794483723156,-4.6672408805436261,0.5309262690570734,3.9373487397227738,2.6850111657103004,0.1116550642099798,8.9947041505063989,5.9803960017871125,0.2868345122312719,1.6616569610015284,0.0000000000000000
7.0802402997110478,-4.7571892503859363,0.5070104477175864,3.9552704180141229,2.6961803751750986,0.1118615622770364,9.0946454182922540,5.9851875114974922,0.2714123084412161,1.6783617489752862,0.0000000000000000
7.1227928547788277,-4.8476189822544384,0.4833849859072729,3.9704679429646954,2.7073706652093685,0.1120769372943354,9.1945866827859835,5.9897178670113584,0.2559938043108471,1.6950535325568237,0.0000000000000000
7.1643298339831425,-4.9385196698110603,0.4602600043584819,3.9824713095823103,2.7185830754928486,0.1123042420669435,9.2945279437330335,5.9939877221754481,0.2404569339272234,1.7117330579679342,0.0000000000000000
