# x_m,y_m,w_tr_right_m,w_tr_left_m,psi,kappa,s,velocity,acceleration,time,n
-0.0562710909795803,0.1104250233389585,2.1624353569397581,1.7977983889031215,-0.0844748866400844,-0.1065907142800969,0.0000000000000000,4.0000000000000000,0.0000000000000000,0.0000000000000000,0.1684335143020140
0.0418297093177644,0.1021182007681587,2.1383610472772112,1.8000484454982051,-0.0949689415764812,-0.1455525622290648,0.0727393368408898,4.0000000000000000,0.0000000000000000,0.0246129670095387,0.1412515231590665
0.1381315312599583,0.0919071069166933,2.1116439643118659,1.8206768074060620,-0.1129003602097496,-0.1551875852835806,0.1646358935317931,4.0000000000000000,0.0000000000000000,0.0488233823134805,0.1146263249841492
0.2342002873464756,0.0803067411751285,2.0828246627241711,1.8480351909656030,-0.1250145397292179,-0.1129363890623007,0.2565686094613066,4.0000000000000000,0.0000000000000000,0.0730150316750743,0.0874943030568620
0.3300544920867121,0.0677881664891197,2.0533065035986735,1.8689099562897311,-0.1347461891468760,-0.1010897963369332,0.3489696314846579,4.0000000000000000,0.0000000000000000,0.0971820847620670,0.0603337645475611
0.4256967177365107,0.0543460174994301,2.0234579675283388,1.8851805247653266,-0.1445501873500450,-0.1019431574170753,0.4411235224087237,4.0000000000000000,0.0000000000000000,0.1213276416731066,0.0331806018166487
0.5211284856876990,0.0399743938581715,1.9937977159626856,1.9028811176443148,-0.1544304017444174,-0.1028202654755839,0.5334887197532426,4.0000000000000000,0.0000000000000000,0.1454546051947241,0.0060057966417112
0.6163502922884345,0.0246669975830096,1.9650698420718209,1.9256067819815219,-0.1643895821653021,-0.1037105060448666,0.6260895264593327,4.0000000000000000,0.0000000000000000,0.1695656877516013,0.0211855384239782
0.7113616408900184,0.0084172655816927,1.9378518314288786,1.9533759971979245,-0.1744294435025595,-0.1046042588539532,0.7189487630627727,4.0000000000000000,0.0000000000000000,0.1936634186525678,0.0483884038692232
0.8061610740868183,-0.0087815122134687,1.9122853591217219,1.9846227171737811,-0.1845507822621093,-0.1054929542861421,0.8120879016654756,4.0000000000000000,0.0000000000000000,0.2177501505968377,0.0755977711667618
0.9007462137881427,-0.0269360863044664,1.8880874289485066,2.0182174265993718,-0.1947535678410155,-0.1063689383960302,0.9055271950074032,4.0000000000000000,0.0000000000000000,0.2418280673629647,0.1028084545078024
0.9951138041787508,-0.0460531511471096,1.8647316273284993,2.0539162227861452,-0.2050370317295949,-0.1072254490179133,0.9985527237285715,4.0000000000000000,0.0000000000000000,0.2658991915114224,0.1299825713681161
1.0892597571780080,-0.0661392591169206,1.8416540589000958,2.0916837605835914,-0.2153997528939622,-0.1080565597325775,1.0924824909304953,4.0000000000000000,0.0000000000000000,0.2899653921353177,0.1571372451903343
1.1831792007032458,-0.0872007439102004,1.8184010474446564,2.1310864844234607,-0.2258397353841382,-0.1088571205797536,1.1867628361027440,4.0000000000000000,0.0000000000000000,0.3140283927973661,0.1842757502379731
1.2768665282977534,-0.1092436528314661,1.7947026112526978,2.1713875451297215,-0.2363544817927776,-0.1096227119669140,1.2814103357582265,4.0000000000000000,0.0000000000000000,0.3380897793761667,0.2113914304551809
1.3703154499997838,-0.1322736875538578,1.7704900390096827,2.2121069024995692,-0.2469410616692125,-0.1103495951410650,1.3764408223544105,4.0000000000000000,0.0000000000000000,0.3621510078706072,0.2384769949016173
1.4635190438113059,-0.1562961527733725,1.7458773914428611,2.2534326893684895,-0.2575961753312361,-0.1110346662481922,1.4718694501058702,4.0000000000000000,0.0000000000000000,0.3862134120712035,0.2655244513316056
1.5564698072827248,-0.1813159123292613,1.7211142848577756,2.2960906909597103,-0.2683162134390953,-0.1116754109812551,1.5677107480459860,4.0000000000000000,0.0000000000000000,0.4102782110498909,0.2925250483980474
1.6491597089526413,-0.2073373523432997,1.6965114292556753,2.3407486194076634,-0.2790973121929596,-0.1122698610125444,1.6620113434375907,4.0000000000000000,0.0000000000000000,0.4343465164690296,0.3194577156447781
1.7415802391559836,-0.2343643508976261,1.6723494324736414,2.3873612273757621,-0.2899354047064808,-0.1128165528627910,1.7585272892813277,4.0000000000000000,0.0000000000000000,0.4584193396493330,0.3463017478356434
1.8337224599832012,-0.2624002538942770,1.6487971617109536,2.4348739606376082,-0.3008262685157910,-0.1133144894701982,1.8554926648697998,4.0000000000000000,0.0000000000000000,0.4824975984056900,0.3730692641912815
1.9255770540244801,-0.2914478566096584,1.6258717075536961,2.4814574141018166,-0.3117655698108912,-0.1137631052500753,1.9529198992929033,4.0000000000000000,0.0000000000000000,0.5065821236112016,0.3997483125837623
2.0171343713919199,-0.3215093905795516,1.6034574088793765,2.5251335601829190,-0.3227489044452465,-0.1141622225041656,2.0508208835654620,4.0000000000000000,0.0000000000000000,0.5306736654207054,0.4263260244769043
2.1083844757193613,-0.3525865156347505,1.5813729787014625,2.5644634728160698,-0.3337718340763349,-0.1145120209546227,2.1492069491958086,4.0000000000000000,0.0000000000000000,0.5547728993834601,0.4527886095115551
2.1993171880331479,-0.3846803162032997,1.5594527318016862,2.5989782793495637,-0.3448299215882644,-0.1148130291475528,2.2480888332228890,4.0000000000000000,0.0000000000000000,0.5788804321840129,0.4791213593546518
2.2899221269215371,-0.4177913016939856,1.5376059988865529,2.6292067838913060,-0.3559187655783780,-0.1150660601246628,2.3474766284770956,4.0000000000000000,0.0000000000000000,0.6029968066927532,0.5053086616817345
2.3801887489834006,-0.4519194117033684,1.5158367862499249,2.6563628956812910,-0.3670340236960923,-0.1152721404079617,2.4473797235320185,4.0000000000000000,0.0000000000000000,0.6271225073966601,0.5313340257817483
2.4701063890200361,-0.4870640243680624,1.4942277332946929,2.6818870324525954,-0.3781714341043778,-0.1154325082806820,2.5478067322181501,4.0000000000000000,0.0000000000000000,0.6512579659963912,0.5571801189821284
2.5596642971046353,-0.5232239680629431,1.4729034938606778,2.7070409896342218,-0.3893268387447351,-0.1155485471425871,2.6487654104332612,4.0000000000000000,0.0000000000000000,0.6754035665642307,0.5828288153518911
2.6488516810671938,-0.5603975389566740,1.4519873262627856,2.7326689154577646,-0.4004961929208135,-0.1156219366130401,2.7502625697920045,4.0000000000000000,0.0000000000000000,0.6995596525353117,0.6082612592070509
2.7376577382168814,-0.5985825162829621,1.4315602303980637,2.7591333500848800,-0.4116756176949854,-0.1156552270799553,2.8523039719251537,4.0000000000000000,0.0000000000000000,0.7237265310572200,0.6334579381690436
2.8260716437557880,-0.6377761710355319,1.4116318583920333,2.7863764525138799,-0.4228615148306170,-0.1156515407179249,2.9548941712469081,4.0000000000000000,0.0000000000000000,0.7479044668478152,0.6583987689211044
2.9140825395075014,-0.6779752868177007,1.3921343864240363,2.8140549546100604,-0.4340505577731681,-0.1156129795326254,3.0580363534458805,4.0000000000000000,0.0000000000000000,0.7720936776150756,0.6830632116185513
3.0016795885118652,-0.7191761956958763,1.3729468792085548,2.8417190494793396,-0.4452395074311823,-0.1155403263335142,3.1617322370329006,4.0000000000000000,0.0000000000000000,0.7962943463644365,0.7074304038828459
3.0888520469502398,-0.7613748021663521,1.3539452707872388,2.8690066705548074,-0.4564251540468076,-0.1154349351117014,3.2659819865450106,4.0000000000000000,0.0000000000000000,0.8205066365006466,0.7314792921413401
3.1755892781618060,-0.8045665942650904,1.3350581718734991,2.8957967173216845,-0.4676044932989867,-0.1152996896087909,3.3707840636478750,4.0000000000000000,0.0000000000000000,0.8447306924458085,0.7551887751021140
3.2618807388807185,-0.8487466673018327,1.3163024340771843,2.9222470240493963,-0.4787748454636311,-0.1151377370727588,3.4761350529688855,4.0000000000000000,0.0000000000000000,0.8689666355966015,0.7785378835985223
3.3477159916638457,-0.8939097602925667,1.2977815367973851,2.9486819767653420,-0.4899337881476908,-0.1149515887385310,3.5820295188340774,4.0000000000000000,0.0000000000000000,0.8932145679682918,0.8015059862861200
3.4330847279945442,-0.9400502854839575,1.2796503700014312,2.9753844667273674,-0.5010791055397439,-0.1147437789980649,3.6884598755992188,4.0000000000000000,0.0000000000000000,0.9174745777679055,0.8240730035354590
3.5179767666921005,-0.9871623491351188,1.2620684745425967,3.0024184545965884,-0.5122088468591275,-0.1145172769602007,3.7954162383690879,4.0000000000000000,0.0000000000000000,0.9417467387446532,0.8462196364763309
3.6023820441583014,-1.0352397776702209,1.2451672289813820,3.0295932201170377,-0.5233213523511058,-0.1142747933003291,3.9028862762218699,4.0000000000000000,0.0000000000000000,0.9660311087162705,0.8679276220419366
3.6862906320420619,-1.0842761556666740,1.2290425621459564,3.0565814343773874,-0.5344151804965858,-0.1140185269593758,4.0175544542850190,4.0000000000000000,0.0000000000000000,0.9903277359097435,0.8891412856462723
3.7696927517725314,-1.1342648519618406,1.2137615151182792,3.0830981472193457,-0.5454890873635909,-0.1137511219166074,4.1261718777989804,4.0000000000000000,0.0000000000000000,1.0146366634529658,0.9098676832429131
3.8525787564360225,-1.1851990346790910,1.1993587735127222,3.1090132872069693,-0.5565421350764224,-0.1134757402942840,4.2352393966273629,4.0000000000000000,0.0000000000000000,1.0389579256762635,0.9301056313382389
3.9349391193926393,-1.2370717068459673,1.1858176801290787,3.1343211883881015,-0.5675736839419629,-0.1131952201660835,4.3447326235104509,4.0000000000000000,0.0000000000000000,1.0632915488960981,0.9498442857816840
4.0167644283488997,-1.2898757271982457,1.1730461238665240,3.1590022455922644,-0.5785833390822024,-0.1129121297758066,4.4546242397715288,4.0000000000000000,0.0000000000000000,1.0876375518421046,0.9690754099180783
4.0980453763511848,-1.3436038357613080,1.1608602994695481,3.1828937755921363,-0.5895709529431450,-0.1126288088199822,4.5722812185928072,4.0000000000000000,0.0000000000000000,1.1119959463883313,0.9877675265663380
4.1787727658079428,-1.3982486825896949,1.1490042514325169,3.2056582321279832,-0.6005365815549850,-0.1123474001408074,4.6829723527728664,4.0000000000000000,0.0000000000000000,1.1363667417864622,1.0058985051297256
4.2589375044308042,-1.4538028480410592,1.1372134483923517,3.2268654140138313,-0.6114804935007623,-0.1120703745581993,4.7939509311115724,4.0000000000000000,0.0000000000000000,1.1607499463254851,1.0235142329566589
4.3385305877069129,-1.5102588603384288,1.1252985565987117,3.2461426665906239,-0.6224032260020120,-0.1118005335499370,4.9051831186333921,4.0000000000000000,0.0000000000000000,1.1851455661038366,1.0406197925246390
4.4175430751289593,-1.5676092154520243,1.1132051475267162,3.2633214184703818,-0.6333055930129836,-0.1115403971724199,5.0242787626565217,4.0000000000000000,0.0000000000000000,1.2095536032026522,1.0572127000239004
4.4959660807330755,-1.6258464018559129,1.1010112577392206,3.2785158090988804,-0.6441886234558236,-0.1112920524531214,5.1359440647139820,4.0000000000000000,0.0000000000000000,1.2339740578567742,1.0732488755287339
4.5737907654099947,-1.6849629175604937,1.0888595903093736,3.2920946861718283,-0.6550535411124701,-0.1110577072868299,5.2477467781781071,4.0000000000000000,0.0000000000000000,1.2584069301476448,1.0888103884086504
4.6510083148197126,-1.7449512812249521,1.0768626171249416,3.3045524030452271,-0.6659018091435334,-0.1108397567414688,5.3596545687144692,4.0000000000000000,0.0000000000000000,1.2828522181802871,1.1039153823953294
4.7276099175350934,-1.8058040489656606,1.0650354474344899,3.3163409954196554,-0.6767351219917015,-0.1106402834666522,5.4792430402597798,4.0000000000000000,0.0000000000000000,1.3073099174796254,1.1185669812640477
4.8035867534910013,-1.8675138310657431,1.0532900284330713,3.3277585676243615,-0.6875553537988601,-0.1104610965206876,5.5912363523768960,4.0000000000000000,0.0000000000000000,1.3317800227214183,1.1327505242744715
4.8789299795328782,-1.9300733018813911,1.0414832918549632,3.3389544225542598,-0.6983645581701379,-0.1103041045500070,5.7032332456228367,4.0000000000000000,0.0000000000000000,1.3562625280812810,1.1465505681196182
4.9536307082237068,-1.9934752086454504,1.0294836022480740,3.3500240098041485,-0.7091649883944875,-0.1101712302621774,5.8152078334095600,4.0000000000000000,0.0000000000000000,1.3807574263361462,1.1599953136771231
5.0276799886539045,-2.0577123819756657,1.0172204349419485,3.3610992947181959,-0.7199590803504221,-0.1100641731313408,5.9344710766236002,4.0000000000000000,0.0000000000000000,1.4052647088885915,1.1730949873100405
5.1010687908116656,-2.1227777444088294,1.0047012932610961,3.3723545798450942,-0.7307494268711237,-0.1099845106137871,6.0462552436485710,4.0000000000000000,0.0000000000000000,1.4297843663988294,1.1858565023690650
5.1737879875434194,-2.1886643148618381,0.9919982475746665,3.3839293517975606,-0.7415387802608362,-0.1099338881605648,6.1579441848091241,4.0000000000000000,0.0000000000000000,1.4543163885068962,1.1983608840468787
5.2458283321271688,-2.2553652111176858,0.9792159380963403,3.3958428457653000,-0.7523300630848029,-0.1099139350390167,6.2695214812662865,4.0000000000000000,0.0000000000000000,1.4788607626192547,1.2106419805198469
5.3171804363321815,-2.3228736524460465,0.9664573167460249,3.4079784039943850,-0.7631263539226150,-0.1099260649205252,6.3878819955223944,4.0000000000000000,0.0000000000000000,1.5034174730375238,1.2227330100510334
5.3878347519412566,-2.3911829606677664,0.9538065336976521,3.4201552487458233,-0.7739308593674377,-0.1099714665026783,6.4990974118254536,4.0000000000000000,0.0000000000000000,1.5279865006738549,1.2346190566862532
5.4577815535067016,-2.4602865585409823,0.9413453706769649,3.4322386744670039,-0.7847468980527665,-0.1100512076397765,6.6101638156629292,4.0000000000000000,0.0000000000000000,1.5525678227094204,1.2463903389209945
5.5270109204718327,-2.5301779659273502,0.9292022124258184,3.4442188506530100,-0.7955778928362229,-0.1101662383555112,6.7210753759868407,4.0000000000000000,0.0000000000000000,1.5771614119107245,1.2580817837066089
5.5955127211696638,-2.6008507959934888,0.9176033955875831,3.4562196076859646,-0.8064273554105923,-0.1103173674928736,6.8318286396573251,4.0000000000000000,0.0000000000000000,1.6017672364351163,1.2697279746405348
5.6632765959881324,-2.6722987468096253,0.9068773151371996,3.4684485220306080,-0.8172988736650906,-0.1105052553943748,6.9487512359310362,4.0000000000000000,0.0000000000000000,1.6263852588047114,1.2813612229251681
5.7302919413485922,-2.7445155924279740,0.8973809174016004,3.4811309097588734,-0.8281960944703135,-0.1107304224878224,7.0590921559372308,4.0000000000000000,0.0000000000000000,1.6510154350434816,1.2929796655476877
5.7965479003852991,-2.8174951758958406,0.8893446890062897,3.4944533934335773,-0.8391227134152413,-0.1109932975365253,7.1692830237018317,4.0000000000000000,0.0000000000000000,1.6756577154156096,1.3046554661827428
5.8620333436350798,-2.8912313923811190,0.8827262166683325,3.5085287053152530,-0.8500824662059485,-0.1112941703905272,7.2793310168901835,4.0000000000000000,0.0000000000000000,1.7003120417337025,1.3164194792460575
5.9267368595918288,-2.9657181775344608,0.8771550803340871,3.5233707859873840,-0.8610791086811038,-0.1116327407422712,7.3892456668803188,4.0000000000000000,0.0000000000000000,1.7249783473696878,1.3283011975562498
5.9906468083464857,-3.0409495672212024,0.8719776909193323,3.5388597569357385,-0.8721163308995963,-0.1120085266684221,7.4990389701483933,4.0000000000000000,0.0000000000000000,1.7496565811294471,1.3403285911100544
6.0537511623243754,-3.1169194879171540,0.8664050954823393,3.5547078169536546,-0.8831977899658905,-0.1124213560361802,7.6087251715420789,4.0000000000000000,0.0000000000000000,1.7743466453526271,1.3525278979246060
6.1160376018138809,-3.1936218628854460,0.8597291687032309,3.5704910910887677,-0.8943271278168288,-0.1128706721302096,7.7240730069741685,4.0000000000000000,0.0000000000000000,1.7990484353561575,1.3649004726554956
6.1774935313595458,-3.2710506173746161,0.8514915605741172,3.5857416055359028,-0.9055078979777034,-0.1133554150894891,7.8335653482966761,4.0000000000000000,0.0000000000000000,1.8237618468189467,1.3774885257827514
6.2381060544575435,-3.3491996225670828,0.8415755969735071,3.6001068420053079,-0.9167435371595860,-0.1138743236188535,7.9430218870523079,4.0000000000000000,0.0000000000000000,1.8484867646257837,1.3903163898278998
6.2978619773886884,-3.4280626720778575,0.8301866902662974,3.6135460948697102,-0.9280373478921864,-0.1144258922086508,8.0524683697575323,4.0000000000000000,0.0000000000000000,1.8732230624787010,1.4034014472076122
6.3567478164339750,-3.5076334574912038,0.8177249371860664,3.6264836231130508,-0.9393924664338171,-0.1150083156346798,8.1619333256576159,4.0000000000000000,0.0000000000000000,1.8979706026738448,1.4167585055389857
6.4147498089809831,-3.5879055419717663,0.8045941805756340,3.6398101581202198,-0.9508118343545924,-0.1156195342179822,8.2714481919718015,4.0000000000000000,0.0000000000000000,1.9227292358730412,1.4303996083711346
6.4718539268823818,-3.6688723326620729,0.7910188296977843,3.6546604355954000,-0.9622981751845452,-0.1162571933371401,8.3810474548794289,4.0000000000000000,0.0000000000000000,1.9474988007107417,1.4443338349255541
6.5280458936720418,-3.7505270528123131,0.7769404772383460,3.6720125445253502,-0.9738539578723633,-0.1169185348457591,8.4966430498718815,4.0000000000000000,0.0000000000000000,1.9722791236183739,1.4585544141776894
6.5833112073868723,-3.8328627130659094,0.7620385711221662,3.6922890801960269,-0.9854813520056234,-0.1176003834455036,8.6066310279215923,4.0000000000000000,0.0000000000000000,1.9970700189347423,1.4730627160219290
6.6376351684654855,-3.9158720816851349,0.7458708196581196,3.7151797284670471,-0.9971821885766374,-0.1182991864672293,8.7168514958201051,4.0000000000000000,0.0000000000000000,2.0218712890960582,1.4878697910197285
6.6910029120495560,-3.9995476543898150,0.7280747940610932,3.7397973980094052,-1.0089579230079866,-0.1190110050509437,8.8273545956647954,4.0000000000000000,0.0000000000000000,2.0466827248701009,1.5029699063116020
6.7433994453058634,-4.0838816241121156,0.7085357077760412,3.7650876632305819,-1.0208095941301440,-0.1197314851395576,8.9381943055016198,4.0000000000000000,0.0000000000000000,2.0715041057069938,1.5183530010859514
6.7948096901274448,-4.1688658507154219,0.6874344814176065,3.7902637423766619,-1.0327377814470289,-0.1204558227896123,9.0494265933637621,4.0000000000000000,0.0000000000000000,2.0963352001804272,1.5340044289786730
6.8452185314313612,-4.2544918313021398,0.6651552756581576,3.8150346617042175,-1.0447425572542617,-0.1211787123260990,9.1680936361154970,4.0000000000000000,0.0000000000000000,2.1211757665903348,1.5498956466124956
6.8946108721376254,-4.3407506711488706,0.6421183704942648,3.8395320666427475,-1.0568234337028315,-0.1218943674115278,9.2805567879707205,4.0000000000000000,0.0000000000000000,2.1460255537777382,1.5659786779381673
6.9429716944328659,-4.4276330550019507,0.6186456769385961,3.8640242166649754,-1.0689793191361572,-0.1225965932877489,9.3936057355955533,4.0000000000000000,0.0000000000000000,2.1708843019323942,1.5822524400248532
6.9902861257651088,-4.5151292198541926,0.5949248516707137,3.8886081859149333,-1.0812084794538572,-0.1232787145924481,9.5072945559995325,4.0000000000000000,0.0000000000000000,2.1957517433419764,1.5986826919177797
7.0365395108994067,-4.6032289302934304,0.5710528825377535,3.9130333038525942,-1.0935084801928618,-0.1239334032822011,9.6216766549910719,4.0000000000000000,0.0000000000000000,2.2206276033972832,1.6152304255765055
7.0817174928826381,-4.6919214558192861,0.5470914759870119,3.9366829674189203,-1.1058761139483280,-0.1245526672408803,9.7455961742639268,4.0000000000000000,0.0000000000000000,2.2455116019458381,1.6317868958840924
7.1258061024112553,-4.7811955499943206,0.5230919910395450,3.9586410122208995,-1.1183073403963766,-0.1251280079977266,9.8619357671984638,4.0000000000000000,0.0000000000000000,2.2704034547557184,1.6483557359197316
