# x_m               , y_m                 , w_tr_right_m      , w_tr_left_m       , psi                , kappa              , s                   , velocity          , acceleration       , time               , n
-0.0063600257586441 , 0.6942590638297753  , 1.5942573941556311, 0.4057426058443686, 0.0039940223992321 , 0.0004549398891582 ,   0.0011711623982226, 4.0000000000000000, 0.0000000000000000 ,  0.0000000000000000, 0.5968510310677259
0.0936274335328593  , 0.6946584181053586  , 1.5946522418159497, 0.4053477581840499, 0.0040395110457012 , 0.0006453304910682 ,   0.1011879132972472, 4.0000000000000000, 0.0000000000000000 ,  0.0249970642018811, 0.5967101899982303
0.1936168359225433  , 0.6950668769652965  , 1.5950535367221814, 0.4049464632778187, 0.0041230746186296 , 0.0007608970534205 ,   0.2012339896091705, 4.0000000000000000, 0.0000000000000000 ,  0.0499946233688358, 0.5965691832535943
0.2936062269729868  , 0.6954829502651396  , 1.5946126627197565, 0.4053873372802436, 0.0041916756138642 , 0.0006483849458601 ,   0.3012783711996165, 4.0000000000000000, 0.0000000000000000 ,  0.0749921875497082, 0.5964268557447560
0.3935956086283979  , 0.6959051280195412  , 1.5958212824440468, 0.4041787175559533, 0.0042527389835132 , 0.0006108581329128 ,   0.4013209946438177, 4.0000000000000000, 0.0000000000000000 ,  0.0999897557787977, 0.5962819749956125
0.4935849802019068  , 0.6963334128319723  , 1.5963261642330133, 0.4036738357669868, 0.0043138353664169 , 0.0006112580213150 ,   0.5013618043118482, 4.0000000000000000, 0.0000000000000000 ,  0.1249873279803459, 0.5961348298697817
0.5935743410050230  , 0.6967678086990641  , 1.5967882425610183, 0.4032117574389820, 0.0043749787252165 , 0.0006117972105579 ,   0.6014007467892286, 4.0000000000000000, 0.0000000000000000 ,  0.1499849040798214, 0.5959857190655613
0.6935636903480716  , 0.6972083210164073  , 1.5972794611289887, 0.4027205388710113, 0.0044361829544040 , 0.0006124740751670 ,   0.7014377708683548, 4.0000000000000000, 0.0000000000000000 ,  0.1749824840041210, 0.5958349508052844
0.7935530275350254  , 0.6976549565591071  , 1.5982615413153385, 0.4017384586846612, 0.0044974616915727 , 0.0006132859502034 ,   0.8014728275333285, 4.0000000000000000, 0.0000000000000000 ,  0.1999800676803415, 0.5956828425003827
0.8935423518695119  , 0.6981077234498596  , 1.5981644549235579, 0.4018355450764423, 0.0045588282982947 , 0.0006142293088021 ,   0.9015058699550630, 4.0000000000000000, 0.0000000000000000 ,  0.2249776550373302, 0.5955297204048229
0.9935316626537335  , 0.6985666311357013  , 1.5986032827891976, 0.4013967172108022, 0.0046202957068771 , 0.0006152990709120 ,   1.0015368534785589, 4.0000000000000000, 0.0000000000000000 ,  0.2499752460054712, 0.5953759192781654
1.0935209591855439  , 0.6990316903253996  , 1.5992116919564860, 0.4007883080435143, 0.0046818762629950 , 0.0006164890069074 ,   1.1015657356073671, 4.0000000000000000, 0.0000000000000000 ,  0.2749728405159639, 0.5952217820101745
1.1935102407589246  , 0.6995029129347377  , 1.5995233510078162, 0.4004766489921841, 0.0047435816531638 , 0.0006177918668614 ,   1.2015924759907513, 4.0000000000000000, 0.0000000000000000 ,  0.2999704385009559, 0.5950676592541880
1.2934995066603689  , 0.6999803120093963  , 1.6000431757198856, 0.3999568242801143, 0.0048054227732230 , 0.0006192000523873 ,   1.3016170364059696, 4.0000000000000000, 0.0000000000000000 ,  0.3249680398926222, 0.5949139090389801
1.3934887561808535  , 0.7004639016439915  , 1.6005359992062180, 0.3994640007937820, 0.0048674097901711 , 0.0006207046903520 ,   1.4016393807554757, 4.0000000000000000, 0.0000000000000000 ,  0.3499656446261317, 0.5947608963775309
1.4934779886023841  , 0.7009536969172772  , 1.6009774321071941, 0.3990225678928056, 0.0049295518254036 , 0.0006222954611734 ,   1.5016594750382186, 4.0000000000000000, 0.0000000000000000 ,  0.3749632526362702, 0.5946089928929512
1.5934672032031503  , 0.7014497137478007  , 1.6015002956096296, 0.3984997043903705, 0.0049918569822061 , 0.0006239620525206 ,   1.6016772873385181, 4.0000000000000000, 0.0000000000000000 ,  0.3999608638586128, 0.5944585763655528
1.6934563992612393  , 0.7019519688346870  , 1.6049720486632890, 0.3950279513367106, 0.0050543323197154 , 0.0006256929114461 ,   1.7016927878135668, 4.0000000000000000, 0.0000000000000000 ,  0.4249584782304324, 0.5943100303658313
1.7934455760462513  , 0.7024604795080205  , 1.6024970073650933, 0.3975029926349068, 0.0051169836308542 , 0.0006274759541335 ,   1.8017059486678231, 4.0000000000000000, 0.0000000000000000 ,  0.4499560956884639, 0.5941637437978824
1.8934347328316319  , 0.7029752636252615  , 1.6029918109955281, 0.3970081890044714, 0.0051798155582332 , 0.0006292983069762 ,   1.9017167441480773, 4.0000000000000000, 0.0000000000000000 ,  0.4749537161718954, 0.5940201104894378
1.9934238688821699  , 0.7034963394447871  , 1.6035356789544037, 0.3964643210455964, 0.0052428313203039 , 0.0006311457765504 ,   2.0017251505132241, 4.0000000000000000, 0.0000000000000000 ,  0.4999513396191138, 0.5938795287598805
2.0934129834563540  , 0.7040237254674888  , 1.6040492911012123, 0.3959507088987874, 0.0053060327212591 , 0.0006330048049224 ,   2.1017236586190640, 4.0000000000000000, 0.0000000000000000 ,  0.5249489659681121, 0.5937423748974658
2.1934020758194541  , 0.7045574403124257  , 1.6045770954195906, 0.3954229045804096, 0.0053694202682257 , 0.0006348610355682 ,   2.2017284494481002, 4.0000000000000000, 0.0000000000000000 ,  0.5499465951596129, 0.5936090833453834
2.2933911452343678  , 0.7050975025818014  , 1.6052028407848498, 0.3947971592151500, 0.0054329928943697 , 0.0006366983702737 ,   2.3017308006068076, 4.0000000000000000, 0.0000000000000000 ,  0.5749442271346060, 0.5934800717687302
2.3933801909584322  , 0.7056439306811542  , 1.6057839348662393, 0.3942160651337610, 0.0054967478874759 , 0.0006385004138666 ,   2.4017306952507367, 4.0000000000000000, 0.0000000000000000 ,  0.5999418618333090, 0.5933557520813799
2.4933692122433104  , 0.7061967426700969  , 1.6063032181652157, 0.3936967818347842, 0.0055606809019773 , 0.0006402514323894 ,   2.5017281184643716, 4.0000000000000000, 0.0000000000000000 ,  0.6249394991949214, 0.5932365384033847
2.5933582083485387  , 0.7067559560850039  , 1.6067686244839159, 0.3932313755160845, 0.0056247860791623 , 0.0006419353809552 ,   2.6017230572561560, 4.0000000000000000, 0.0000000000000000 ,  0.6499371391607447, 0.5931228465812191
2.6933471785389109  , 0.7073215878137794  , 1.6073390582871740, 0.3926609417128268, 0.0056890558647922 , 0.0006435340049594 ,   2.7017155005379005, 4.0000000000000000, 0.0000000000000000 ,  0.6749347816733194, 0.5930150937606382
2.7933361220685309  , 0.7078936538819063  , 1.6079194052678925, 0.3920805947321069, 0.0057534807495674 , 0.0006450292782797 ,   2.8017054390904730, 4.0000000000000000, 0.0000000000000000 ,  0.6999324266720937, 0.5929136978712943
2.8933250381979763  , 0.7084721692754188  , 1.6085098487086118, 0.3914901512913884, 0.0058180495743509 , 0.0006464046435722 ,   2.9016928655632039, 4.0000000000000000, 0.0000000000000000 ,  0.7249300740974037, 0.5928190771483917
2.9933139262024282  , 0.7090571477881303  , 1.6091033359334710, 0.3908966640665290, 0.0058827495186868 , 0.0006476410849178 ,   3.0016777744647873, 4.0000000000000000, 0.0000000000000000 ,  0.7499277238922184, 0.5927316496789502
3.0933027853446529  , 0.7096486018420580  , 1.6096859333228279, 0.3903140666771718, 0.0059475656205981 , 0.0006487194636079 ,   3.1016601621193427, 4.0000000000000000, 0.0000000000000000 ,  0.7749253759950430, 0.5926518329217488
3.1932916148998460  , 0.7102465422387096  , 1.6102762557210630, 0.3897237442789372, 0.0060124812322284 , 0.0006496229403901 ,   3.2016400266744287, 4.0000000000000000, 0.0000000000000000 ,  0.7999230303456708, 0.5925800431579832
3.2932804141650118  , 0.7108509780708466  , 1.6108744480887032, 0.3891255519112969, 0.0060774780240682 , 0.0006503315666380 ,   3.3016173680952745, 4.0000000000000000, 0.0000000000000000 ,  0.8249206868872908, 0.5925166951026520
3.3932691824226451  , 0.7114619164742548  , 1.6114803538220821, 0.3885196461779179, 0.0061425353588920 , 0.0006508255695416 ,   3.4015921881129634, 4.0000000000000000, 0.0000000000000000 ,  0.8499183455569186, 0.5924622013563610
3.4932579189747930  , 0.7120793624144462  , 1.6120938407872758, 0.3879061592127245, 0.0062076309529759 , 0.0006510875923678 ,   3.5015644902440082, 4.0000000000000000, 0.0000000000000000 ,  0.8749160062934553, 0.5924169718916398
3.5932466231388687  , 0.7127033185708611  , 1.6127161178330549, 0.3872838821669448, 0.0062727406980674 , 0.0006510989725581 ,   3.6015342797731771, 4.0000000000000000, 0.0000000000000000 ,  0.8999136690363201, 0.5923814136370181
3.6932352942497904  , 0.7133337850877746  , 1.6134095994897260, 0.3865904005102741, 0.0063378385782706 , 0.0006508396617097 ,   3.7015015637426796, 4.0000000000000000, 0.0000000000000000 ,  0.9249113337254428, 0.5923559299277195
3.7932239316422343  , 0.7139707594417898  , 1.6146725113022184, 0.3853274886977813, 0.0064028964760050 , 0.0006502907817376 ,   3.8014663509232567, 4.0000000000000000, 0.0000000000000000 ,  0.9499090002964515, 0.5923409200729751
3.8932125346732147  , 0.7146142361540637  , 1.6154475919746032, 0.3845524080253968, 0.0064678846000887 , 0.0006494362531675 ,   3.9014286518256429, 4.0000000000000000, 0.0000000000000000 ,  0.9749066686856811, 0.5923367787676608
3.9932011027396550  , 0.7152642067436398  , 1.6160737784740546, 0.3839262215259445, 0.0065327716173484 , 0.0006482563816994 ,   4.0014042146027515, 4.0000000000000000, 0.0000000000000000 ,  0.9999043388342975, 0.5923439292479404
4.0931896352255901  , 0.7159206594655131  , 1.6160196517933043, 0.3839803482066954, 0.0065975237980866 , 0.0006467329044566 ,   4.1013628119982943, 4.0000000000000000, 0.0000000000000000 ,  1.0249020106744746, 0.5923627675464250
4.1931781315612966  , 0.7165835790933310  , 1.6165920729218501, 0.3834079270781491, 0.0066621061568732 , 0.0006448508727947 ,   4.2013189560517183, 4.0000000000000000, 0.0000000000000000 ,  1.0498996841436055, 0.5923936373986805
4.2931665912016967  , 0.7172529468858092  , 1.6172599169665989, 0.3827400830334008, 0.0067264819745609 , 0.0006425917522190 ,   4.3012726632349594, 4.0000000000000000, 0.0000000000000000 ,  1.0748973591786231, 0.5924369104310223
4.3931550136080597  , 0.7179287402733322  , 1.6179363982121513, 0.3820636017878480, 0.0067906125591384 , 0.0006399403118361 ,   4.4012239517108744, 4.0000000000000000, 0.0000000000000000 ,  1.0998950357106729, 0.5924929512562461
4.4931433982936877  , 0.7186109327769867  , 1.6186194478205209, 0.3813805521794792, 0.0068544581455510 , 0.0006368834122722 ,   4.5011728413764791, 4.0000000000000000, 0.0000000000000000 ,  1.1248927136761524, 0.5925621170900939
4.5931317448033857  , 0.7192994938751066  , 1.6193089654514397, 0.3806910345485604, 0.0069179774141594 , 0.0006334055554544 ,   4.6011193538411410, 4.0000000000000000, 0.0000000000000000 ,  1.1498903930111042, 0.5926447573151723
4.6931200527079975  , 0.7199943888256575  , 1.6200048703030827, 0.3799951296969173, 0.0069811275005667 , 0.0006294930504924 ,   4.7010635124211086, 4.0000000000000000, 0.0000000000000000 ,  1.1748880736492902, 0.5927412130000924
4.7931083216119754  , 0.7206955785349343  , 1.6207070819493632, 0.3792929180506374, 0.0070438643471933 , 0.0006251356358013 ,   4.8010053421489323, 4.0000000000000000, 0.0000000000000000 ,  1.1998857555235942, 0.5928518164642678
4.8930965511731017  , 0.7214030194504335  , 1.6214155199594500, 0.3785844800405495, 0.0071061430375152 , 0.0006203230639394 ,   4.9009448697968008, 4.0000000000000000, 0.0000000000000000 ,  1.2248834385705005, 0.5929768908662085
4.9930847410808621  , 0.7221166634961940  , 1.6221301036982680, 0.3778698963017316, 0.0071679174646522 , 0.0006150453535679 ,   5.0008821238604568, 4.0000000000000000, 0.0000000000000000 ,  1.2498811227243056, 0.5931167498338673
5.0930728910664156  , 0.7228364578993203  , 1.6228507520552833, 0.3771492479447160, 0.0072291407159861 , 0.0006092964914812 ,   5.1008171345757294, 4.0000000000000000, 0.0000000000000000 ,  1.2748788079190345, 0.5932716969852802
5.1930610009195934  , 0.7235623452025169  , 1.6235773833877978, 0.3764226166122020, 0.0072897654821118 , 0.0006030713963709 ,   5.2007499339449224, 4.0000000000000000, 0.0000000000000000 ,  1.2998764940924439, 0.5934420256344369
5.2930490704717501  , 0.7242942631722069  , 1.6243099153919180, 0.3756900846080817, 0.0073497438342476 , 0.0005963660008499 ,   5.3006805557301400, 4.0000000000000000, 0.0000000000000000 ,  1.3248741811813043, 0.5936280183921497
5.3930370996061683  , 0.7250321447665016  , 1.6250482650530491, 0.3749517349469512, 0.0074090276495853 , 0.0005891800446507 ,   5.4006090354762879, 4.0000000000000000, 0.0000000000000000 ,  1.3498718691236826, 0.5938299468257898
5.4930250882672009  , 0.7257759181285762  , 1.6257923486470458, 0.3742076513529546, 0.0074675689473054 , 0.0005815144817424 ,   5.5005354105346820, 4.0000000000000000, 0.0000000000000000 ,  1.3748695578609600, 0.5940480711435830
5.5930130364430672  , 0.7265255066216382  , 1.6265420817984491, 0.3734579182015511, 0.0075253197953817 , 0.0005733731022765 ,   5.6004597200622701, 4.0000000000000000, 0.0000000000000000 ,  1.3998672473333500, 0.5942826399197394
5.6930009441872169  , 0.7272808288037537  , 1.6272973794864389, 0.3727026205135614, 0.0075822329709634 , 0.0005647638863898 ,   5.7003820050608791, 4.0000000000000000, 0.0000000000000000 ,  1.4248649374849562, 0.5945338897583060
5.7929888116171888  , 0.7280417985950071  , 1.6280581553866784, 0.3719418446133214, 0.0076382621379245 , 0.0005556965448128 ,   5.8003023083966330, 4.0000000000000000, 0.0000000000000000 ,  1.4498626282635771, 0.5948020451485112
5.8929766389102580  , 0.7288083252876445  , 1.6288242984843639, 0.3711757015156363, 0.0076933620153983 , 0.0005461838144955 ,   5.9002288065516435, 4.0000000000000000, 0.0000000000000000 ,  1.4748603196194294, 0.5950873182176709
5.9929644263062629  , 0.7295803137469672  , 1.6295956482753819, 0.3704043517246181, 0.0077474888144307 , 0.0005362420218596 ,   6.0001742941690388, 4.0000000000000000, 0.0000000000000000 ,  1.4998580115060443, 0.5953900691558743
6.0929521741015193  , 0.7303576645087864  , 1.6303722054465430, 0.3696277945534563, 0.0078006005191538 , 0.0005258926226619 ,   6.1000898159664887, 4.0000000000000000, 0.0000000000000000 ,  1.5248557038787598, 0.5957103318411445
6.1929398826716673  , 0.7311402740367037  , 1.6311537574705075, 0.3688462425294923, 0.0078526576313949 , 0.0005151610416512 ,   6.2000035191344072, 4.0000000000000000, 0.0000000000000000 ,  1.5498533967007759, 0.5960482791691007
6.2929275524571651  , 0.7319280349684173  , 1.6319403376877648, 0.3680596623122354, 0.0079036232197978 , 0.0005040751101619 ,   6.2999154552110861, 4.0000000000000000, 0.0000000000000000 ,  1.5748510899398771, 0.5964040718041230
6.3929151839598086  , 0.7327208363826208  , 1.6327318782500608, 0.3672681217499386, 0.0079534633519656 , 0.0004926681603849 ,   6.3998256777445341, 4.0000000000000000, 0.0000000000000000 ,  1.5998487835679787, 0.5967778574649785
6.4929027777481823  , 0.7335185641318868  , 1.6335282609681610, 0.3664717390318388, 0.0080021477623899 , 0.0004807827725776 ,   6.4997342423297466, 4.0000000000000000, 0.0000000000000000 ,  1.6248464775630640, 0.5971697709385890
6.5928903314638934  , 0.7343211012192162  , 1.6343236665268068, 0.3656763334731931, 0.0080496110362187 , 0.0004668594418075 ,   6.5996412036483001, 4.0000000000000000, 0.0000000000000000 ,  1.6498441711614602, 0.5975799341479135
6.6928778193455587  , 0.7351283202025599  , 1.6347450624912530, 0.3652549375087473, 0.0080955110234888 , 0.0004475232915976 ,   6.6995465949973703, 4.0000000000000000, 0.0000000000000000 ,  1.6748418577236368, 0.5980084483092918
6.7928651673464548  , 0.7359400350745290  , 1.6257726582759282, 0.3742273417240723, 0.0081391073656900 , 0.0004238510870234 ,   6.7994504032753111, 4.0000000000000000, 0.0000000000000000 ,  1.6998395184157966, 0.5984553455620902
6.8928523036969453  , 0.7367559699425094  , 1.5872055021340770, 0.4127944978659236, 0.0081802732336007 , 0.0004033739656838 ,   6.8993526195130057, 4.0000000000000000, 0.0000000000000000 ,  1.7248371347837630, 0.5989205571155675
6.9928392060609905  , 0.7375759138402990  , 1.5875314658282078, 0.4124685341717922, 0.0082197743857135 , 0.0003896578387685 ,   6.9992532866425741, 4.0000000000000000, 0.0000000000000000 ,  1.7498347008557236, 0.5994040675795854
7.0928258743649106  , 0.7383997445970478  , 1.5883601874204236, 0.4116398125795763, 0.0082581971354101 , 0.0003796940453526 ,   7.0991524723925661, 4.0000000000000000, 0.0000000000000000 ,  1.7748322164018158, 0.5999059386284359
7.1928123110718909  , 0.7392273687053036  , 1.5891646980320528, 0.4108353019679474, 0.0082957055720865 , 0.0003707138564396 ,   7.1990502493553699, 4.0000000000000000, 0.0000000000000000 ,  1.7998296818821193, 0.6004262486175840
7.2927985185554371  , 0.7400586968315611  , 1.5900341820309216, 0.4099658179690782, 0.0083323323164630 , 0.0003620357475835 ,   7.2989466923085322, 4.0000000000000000, 0.0000000000000000 ,  1.8248270977403089, 0.6009650677754277
7.3927844991303600  , 0.7408936419923104  , 1.5908710248679458, 0.4091289751320544, 0.0083681051659543 , 0.0003536797439334 ,   7.3988418782776382, 4.0000000000000000, 0.0000000000000000 ,  1.8498244644078079, 0.6015224560497208
7.4927702550226201  , 0.7417321204133175  , 1.5914661378364967, 0.4085338621635027, 0.0084030607453929 , 0.0003457377779566 ,   7.4987358865477107, 4.0000000000000000, 0.0000000000000000 ,  1.8748217822981950, 0.6020984636362193
7.5927557883757713  , 0.7425740524354217  , 1.5924774283676519, 0.4075225716323478, 0.0084372452361887 , 0.0003383089741492 ,   7.5986287987117116, 4.0000000000000000, 0.0000000000000000 ,  1.8998190518108886, 0.6026931315525623
7.6927411012692355  , 0.7434193635200304  , 1.5933955374011746, 0.4066044625988247, 0.0084707150853001 , 0.0003314945396457 ,   7.6985206987313539, 4.0000000000000000, 0.0000000000000000 ,  1.9248162733380325, 0.6033064923106775
7.7927261956887071  , 0.7442679852963843  , 1.5942004970663195, 0.4057995029336797, 0.0085035367126052 , 0.0003253968585357 ,   7.7984116729502864, 4.0000000000000000, 0.0000000000000000 ,  1.9498134472595356, 0.6039385706299419
7.8927110735308093  , 0.7451198565083996  , 1.5950345094203939, 0.4049654905796056, 0.0085357870387508 , 0.0003201235561707 ,   7.8983018101413416, 4.0000000000000000, 0.0000000000000000 ,  1.9748105739464945, 0.6045893840487161
7.9926957366162137  , 0.7459749241678417  , 1.5959527142831351, 0.4040472857168652, 0.0085675540053058 , 0.0003157829460534 ,   7.9982395920852616, 4.0000000000000000, 0.0000000000000000 ,  1.9998076537672007, 0.6052590650834411
8.0926801866607541  , 0.7468331446048903  , 1.5967473213348407, 0.4032526786651590, 0.0085989361920764 , 0.0003124829984612 ,   8.0981284873129322, 4.0000000000000000, 0.0000000000000000 ,  2.0248046870824612, 0.6059475706036350
8.1926644252733247  , 0.7476944845446343  , 1.5962594097081739, 0.4037405902918262, 0.0086300431310053 , 0.0003103361629459 ,   8.1980167772388057, 4.0000000000000000, 0.0000000000000000 ,  2.0498016742477017, 0.6066548280056938
8.2926484539806218  , 0.7485589222208564  , 1.5984656055055082, 0.4015343944944917, 0.0086609958878905 , 0.0003094552679258 ,   8.2979045594862537, 4.0000000000000000, 0.0000000000000000 ,  2.0747986156218947, 0.6073808331231576
8.3926322742062833  , 0.7494264485686886  , 1.5993976662499958, 0.4006023337500040, 0.0086919265562924 , 0.0003099498977054 ,   8.3977919342908685, 4.0000000000000000, 0.0000000000000000 ,  2.0997955115652935, 0.6081255784914821
8.4926158872588040  , 0.7502970682368525  , 1.6002059238852520, 0.3997940761147476, 0.0087229781147380 , 0.0003119297932518 ,   8.4976790045301271, 4.0000000000000000, 0.0000000000000000 ,  2.1247923624390070, 0.6088890540192629
