# x_m,y_m,w_tr_right_m,w_tr_left_m,psi,kappa,s,velocity,acceleration,time,n
-0.0004420574270068,0.1038010667810738,1.0038266856995244,0.9961733143004757,0.0009227662471887,0.0000857452426256,0.0000000000000000,4.0000000000000000,0.0000000000000000,0.0000000000000000,0.0000000000000000
0.0995292605197424,0.1038937562159499,1.0039422438762722,0.9960577561237278,0.0009316615064092,0.0000922109067949,0.0999713609157210,4.0000000000000000,0.0000000000000000,0.0249928402289303,0.0000000000000000
0.1995005776063180,0.1039873687411409,1.0040121084459228,0.9959878915540771,0.0009412484520297,0.0000995829336141,0.1999427218313828,4.0000000000000000,0.0000000000000000,0.0499856804578457,0.0000000000000000
0.2994718937563001,0.1040819761210754,1.0041715969461178,0.9958284030538822,0.0009515602705121,0.0001067125171673,0.2999140827469771,4.0000000000000000,0.0000000000000000,0.0749785206867443,0.0000000000000000
0.3994432088911234,0.1041776501234445,1.0043457664248454,0.9956542335751547,0.0009625881107527,0.0001139074711870,0.3998854436624957,4.0000000000000000,0.0000000000000000,0.0999713609156239,0.0000000000000000
0.4994145229299218,0.1042744625191400,1.0042915634978795,0.9957084365021203,0.0009743343847854,0.0001210853092503,0.4998568045779299,4.0000000000000000,0.0000000000000000,0.1249642011444825,0.0000000000000000
0.5993858357893739,0.1043724850821904,1.0043822402616491,0.9956177597383508,0.0009867984858984,0.0001282681255533,0.5998281654932707,4.0000000000000000,0.0000000000000000,0.1499570413733177,0.0000000000000000
0.6993571473835486,0.1044717895896986,1.0044906754036076,0.9955093245963922,0.0009999806154555,0.0001354499920440,0.6997995264085087,4.0000000000000000,0.0000000000000000,0.1749498816021272,0.0000000000000000
0.7993284576237506,0.1045724478217789,1.0046030510529262,0.9953969489470736,0.0010138807575002,0.0001426324891325,0.7997708873236349,4.0000000000000000,0.0000000000000000,0.1999427218309087,0.0000000000000000
0.8992997664183654,0.1046745315614936,1.0047191858146203,0.9952808141853799,0.0010284989535103,0.0001498151854092,0.8997422482386397,4.0000000000000000,0.0000000000000000,0.2249355620596599,0.0000000000000000
0.9992710736727048,0.1047781125947899,1.0048387439050737,0.9951612560949266,0.0010438352287763,0.0001569981884545,0.9997136091535137,4.0000000000000000,0.0000000000000000,0.2499284022883784,0.0000000000000000
1.0992423792888522,0.1048832627104372,1.0049538388511328,0.9950461611488671,0.0010598896121281,0.0001641814614992,1.0996849700682474,4.0000000000000000,0.0000000000000000,0.2749212425170618,0.0000000000000000
1.1992136831655069,0.1049900536999634,1.0050659195845884,0.9949340804154116,0.0010766621306491,0.0001713650063639,1.1996563309828308,4.0000000000000000,0.0000000000000000,0.2999140827457077,0.0000000000000000
1.2991849851978314,0.1050985573575921,1.0051799053948793,0.9948200946051209,0.0010941528110910,0.0001785488145993,1.2996276918972545,4.0000000000000000,0.0000000000000000,0.3249069229743136,0.0000000000000000
1.3991562852772954,0.1052088454801787,1.0052958647728292,0.9947041352271707,0.0011123616794948,0.0001857328804300,1.3995990528115094,4.0000000000000000,0.0000000000000000,0.3498997632028774,0.0000000000000000
1.4991275832915201,0.1053209898671474,1.0054138658389420,0.9945861341610581,0.0011312887612915,0.0001929171974292,1.4995704137255854,4.0000000000000000,0.0000000000000000,0.3748926034313964,0.0000000000000000
1.5990988791241252,0.1054350623204277,1.0055157770287320,0.9944842229712680,0.0011509340812743,0.0002001017592701,1.5995417746394733,4.0000000000000000,0.0000000000000000,0.3998854436598683,0.0000000000000000
1.6990701726545738,0.1055511346443907,1.0055563732896342,0.9944436267103658,0.0011712976636056,0.0002072865596567,1.6995131355531645,4.0000000000000000,0.0000000000000000,0.4248782838882911,0.0000000000000000
1.7990414637580165,0.1056692786457858,1.0056759248052101,0.9943240751947899,0.0011923795318147,0.0002144715922144,1.7994844964666499,4.0000000000000000,0.0000000000000000,0.4498711241166625,0.0000000000000000
1.8990127523051377,0.1057895661336767,1.0057977157829889,0.9942022842170111,0.0012141797087970,0.0002216568506421,1.8994558573799210,4.0000000000000000,0.0000000000000000,0.4748639643449802,0.0000000000000000
1.9989840381619997,0.1059120689193778,1.0059217994299894,0.9940782005700106,0.0012366982168146,0.0002288423285722,1.9994272182929691,4.0000000000000000,0.0000000000000000,0.4998568045732423,0.0000000000000000
2.0989553211898890,0.1060368588163906,1.0060482306324170,0.9939517693675831,0.0012599350774933,0.0002360280196361,2.0993985792057863,4.0000000000000000,0.0000000000000000,0.5248496448014466,0.0000000000000000
2.1989266012451609,0.1061640076403394,1.0061770658333724,0.9938229341666277,0.0012838903118246,0.0002432139175211,2.1993699401183648,4.0000000000000000,0.0000000000000000,0.5498424850295912,0.0000000000000000
2.2988978781790843,0.1062935872089075,1.0063083629198195,0.9936916370801806,0.0013085639401649,0.0002504000158200,2.2993413010306969,4.0000000000000000,0.0000000000000000,0.5748353252576742,0.0000000000000000
2.3988691518376881,0.1064256693417734,1.0064428567073387,0.9935571432926613,0.0013339559822314,0.0002575863081740,2.3993126619427763,4.0000000000000000,0.0000000000000000,0.5998281654856941,0.0000000000000000
2.4988404220616052,0.1065603258605461,1.0065783308831913,0.9934216691168088,0.0013600664571063,0.0002647727882211,2.4992840228545967,4.0000000000000000,0.0000000000000000,0.6248210057136492,0.0000000000000000
2.5988116886859167,0.1066976285887016,1.0067160589135711,0.9932839410864291,0.0013868953832330,0.0002719594495512,2.5992553837661516,4.0000000000000000,0.0000000000000000,0.6498138459415379,0.0000000000000000
2.6987829515399997,0.1068376493515178,1.0068565433948160,0.9931434566051839,0.0014144427784162,0.0002791462857916,2.6992267446774356,4.0000000000000000,0.0000000000000000,0.6748066861693589,0.0000000000000000
2.7987542104473713,0.1069804599760106,1.0069998554901771,0.9930001445098228,0.0014427086598203,0.0002863332905080,2.7991981055884443,4.0000000000000000,0.0000000000000000,0.6997995263971111,0.0000000000000000
2.8987254652255321,0.1071261322908692,1.0071460664090446,0.9928539335909554,0.0014716930439713,0.0002935204573640,2.8991694664991736,4.0000000000000000,0.0000000000000000,0.7247923666247934,0.0000000000000000
2.9986967156858131,0.1072747381263917,1.0072952473941110,0.9927047526058889,0.0015013959467529,0.0003007077798447,2.9991408274096192,4.0000000000000000,0.0000000000000000,0.7497852068524048,0.0000000000000000
3.0986679616332204,0.1074263493144201,1.0074474697100473,0.9925525302899527,0.0015318173834071,0.0003078952516334,3.0991121883197787,4.0000000000000000,0.0000000000000000,0.7747780470799447,0.0000000000000000
3.1986392028662798,0.1075810376882757,1.0076028046335719,0.9923971953664281,0.0015629573685341,0.0003150828661952,3.1990835492296492,4.0000000000000000,0.0000000000000000,0.7997708873074123,0.0000000000000000
3.2986104391768838,0.1077388750826941,1.0077613234448046,0.9922386765551956,0.0015948159160897,0.0003222706171861,3.2990549101392301,4.0000000000000000,0.0000000000000000,0.8247637275348075,0.0000000000000000
3.3985816703501337,0.1078999333337601,1.0079230974197921,0.9920769025802081,0.0016273930393875,0.0003294584980921,3.3990262710485206,4.0000000000000000,0.0000000000000000,0.8497565677621302,0.0000000000000000
3.4985528961641861,0.1080642842788430,1.0080881978241185,0.9919118021758816,0.0016606887510939,0.0003366465024845,3.4989976319575198,4.0000000000000000,0.0000000000000000,0.8747494079893799,0.0000000000000000
3.5985241163900996,0.1082319997565309,1.0082566959075017,0.9917433040924983,0.0016947030632311,0.0003438346238977,3.5989689928662298,4.0000000000000000,0.0000000000000000,0.8997422482165575,0.0000000000000000
3.6984953307916775,0.1084031516065654,1.0084286628992940,0.9915713371007059,0.0017294359871731,0.0003510228558495,3.6989403537746521,4.0000000000000000,0.0000000000000000,0.9247350884436630,0.0000000000000000
3.7984665391253136,0.1085778116697765,1.0086041700048081,0.9913958299951919,0.0017648875336478,0.0003582111918722,3.7989117146827889,4.0000000000000000,0.0000000000000000,0.9497279286706972,0.0000000000000000
3.8984377411398388,0.1087560517880167,1.0087832884023926,0.9912167115976073,0.0018010577127334,0.0003653996254483,3.8988830755906445,4.0000000000000000,0.0000000000000000,0.9747207688976611,0.0000000000000000
3.9984089365763640,0.1089379438040954,1.0089660892411878,0.9910339107588123,0.0018379465338594,0.0003725881501139,3.9988544364982235,4.0000000000000000,0.0000000000000000,0.9997136091245559,0.0000000000000000
4.0983801251681271,0.1091235595617130,1.0091526436394949,0.9908473563605051,0.0018755540058046,0.0003797767593202,4.0988257974055324,4.0000000000000000,0.0000000000000000,1.0247064493513831,0.0000000000000000
4.1983513066403360,0.1093129709053953,1.0093430226837012,0.9906569773162989,0.0019138801366965,0.0003869654465757,4.1987971583125763,4.0000000000000000,0.0000000000000000,1.0496992895781441,0.0000000000000000
4.2983224807100164,0.1095062496804270,1.0095372974276975,0.9904627025723026,0.0019529249340100,0.0003941542053309,4.2987685192193643,4.0000000000000000,0.0000000000000000,1.0746921298048411,0.0000000000000000
4.3982936470858549,0.1097034677327858,1.0097355388927385,0.9902644611072614,0.0019926884045671,0.0004013430290606,4.3987398801259046,4.0000000000000000,0.0000000000000000,1.0996849700314761,0.0000000000000000
4.4982648054680441,0.1099046969090758,1.0099378180676968,0.9900621819323034,0.0020331705545351,0.0004085319111976,4.4987112410322068,4.0000000000000000,0.0000000000000000,1.1246778102580517,0.0000000000000000
4.5982359555481311,0.1101100090564615,1.0101442059096566,0.9898557940903435,0.0020743713894260,0.0004157208452004,4.5986826019382843,4.0000000000000000,0.0000000000000000,1.1496706504845711,0.0000000000000000
4.6982070970088579,0.1103194760226006,1.0103547733448137,0.9896452266551862,0.0021162909140962,0.0004229098244868,4.6986539628441486,4.0000000000000000,0.0000000000000000,1.1746634907110372,0.0000000000000000
4.7981782295240079,0.1105331696555780,1.0105695912696313,0.9894304087303687,0.0021589291327431,0.0004300988424756,4.7986253237498122,4.0000000000000000,0.0000000000000000,1.1996563309374531,0.0000000000000000
4.8981493527582538,0.1107511618038383,1.0107887305522203,0.9892112694477796,0.0022022860489062,0.0004372878925582,4.8985966846552911,4.0000000000000000,0.0000000000000000,1.2246491711638228,0.0000000000000000
4.9981204663670002,0.1109735243161190,1.0110122620339077,0.9889877379660924,0.0022463616654655,0.0004444769681765,4.9985680455606012,4.0000000000000000,0.0000000000000000,1.2496420113901503,0.0000000000000000
5.0980915699962317,0.1112003290413835,1.0112402565309586,0.9887597434690415,0.0022911559846406,0.0004516660626524,5.0985394064657621,4.0000000000000000,0.0000000000000000,1.2746348516164405,0.0000000000000000
5.1980626632823528,0.1114316478287537,1.0114727848364276,0.9885272151635723,0.0023366690079900,0.0004588551694519,5.1985107673707915,4.0000000000000000,0.0000000000000000,1.2996276918426979,0.0000000000000000
5.2980337458520372,0.1116675525274425,1.0117099177221072,0.9882900822778931,0.0023829007364016,0.0004660442816978,5.2984821282757100,4.0000000000000000,0.0000000000000000,1.3246205320689275,0.0000000000000000
5.3980048173220734,0.1119081149866863,1.0119517259405508,0.9880482740594494,0.0024298511701280,0.0004732333935431,5.3984534891805405,4.0000000000000000,0.0000000000000000,1.3496133722951351,0.0000000000000000
5.4979758772992078,0.1121534070556771,1.0121982802271501,0.9878017197728499,0.0024775203086500,0.0004804224954035,5.4984248500853061,4.0000000000000000,0.0000000000000000,1.3746062125213265,0.0000000000000000
5.5979469253799925,0.1124035005834947,1.0124496513022436,0.9875503486977565,0.0025259081511788,0.0004876115914716,5.5983962109900336,4.0000000000000000,0.0000000000000000,1.3995990527475084,0.0000000000000000
5.6979179611506243,0.1126584674190389,1.0127059098732383,0.9872940901267616,0.0025750146947747,0.0004948006345202,5.6983675718947460,4.0000000000000000,0.0000000000000000,1.4245918929736865,0.0000000000000000
5.7978889841868000,0.1129183794109607,1.0129671266367324,0.9870328733632677,0.0026248399413666,0.0005019897691734,5.7983389327994725,4.0000000000000000,0.0000000000000000,1.4495847331998681,0.0000000000000000
5.8978599940535554,0.1131833084075944,1.0132333722806173,0.9867666277193827,0.0026753838715425,0.0005091784238745,5.8983102937042444,4.0000000000000000,0.0000000000000000,1.4745775734260611,0.0000000000000000
5.9978309903051104,0.1134533262568888,1.0135047174861549,0.9864952825138453,0.0027266465423663,0.0005163687001288,5.9982816546090927,4.0000000000000000,0.0000000000000000,1.4995704136522732,0.0000000000000000
6.0978019724847181,0.1137285048063388,1.0137812329300113,0.9862187670699885,0.0027786277223103,0.0005235527229560,6.0982530155140511,4.0000000000000000,0.0000000000000000,1.5245632538785128,0.0000000000000000
6.1977729401245050,0.1140089159029159,1.0140629892862425,0.9859370107137573,0.0028313282536951,0.0005307598504389,6.1982243764191542,4.0000000000000000,0.0000000000000000,1.5495560941047886,0.0000000000000000
6.2977438927453209,0.1142946313930000,1.0143500572282207,0.9856499427717792,0.0028847449680034,0.0005378804847720,6.2981957373244386,4.0000000000000000,0.0000000000000000,1.5745489343311097,0.0000000000000000
6.3977148298565822,0.1145857231223093,1.0146422757062965,0.9853577242937036,0.0029388896621592,0.0005453236183240,6.3981670982299432,4.0000000000000000,0.0000000000000000,1.5995417745574858,0.0000000000000000
6.4976857509561183,0.1148822629358317,1.0149319131266590,0.9850680868733409,0.0029937182781017,0.0005515628390049,6.4981384591357081,4.0000000000000000,0.0000000000000000,1.6245346147839270,0.0000000000000000
6.5976566555300167,0.1151843226777547,1.0152337841044825,0.9847662158955175,0.0030493952082069,0.0005622947619713,6.5981098200417758,4.0000000000000000,0.0000000000000000,1.6495274550104440,0.0000000000000000
6.6976275429987542,0.1154919914850261,1.0155412371203563,0.9844587628796437,0.0031058258540384,0.0005666414719207,6.6980811809476970,4.0000000000000000,0.0000000000000000,1.6745202952369242,0.0000000000000000
6.7975984128620413,0.1158053283810458,1.0158543329487943,0.9841456670512057,0.0031628394847110,0.0005739577989887,6.7980525418528721,4.0000000000000000,0.0000000000000000,1.6995131354632180,0.0000000000000000
6.8975692645816835,0.1161244012689262,0.9714154948161975,1.0285845051838025,0.0032205764249320,0.0005811118070807,6.8980239027571759,4.0000000000000000,0.0000000000000000,1.7245059756892940,0.0000000000000000
6.9975400975951132,0.1164492819889466,0.9664319189563917,1.0335680810436083,0.0032790307283721,0.0005883091734952,6.9979952636605933,4.0000000000000000,0.0000000000000000,1.7494988159151483,0.0000000000000000
7.0975109113272481,0.1167800423802484,0.9667669874050537,1.0332330125949465,0.0033382039744261,0.0005954947785218,7.0979666245631119,4.0000000000000000,0.0000000000000000,1.7744916561407780,0.0000000000000000
7.1974817051903326,0.1171167542807648,0.9671074379182022,1.0328925620817979,0.0033980957251061,0.0006026833826797,7.1979379854647183,4.0000000000000000,0.0000000000000000,1.7994844963661796,0.0000000000000000
7.2974524785837884,0.1174594895271502,0.9674533230967367,1.0325466769032634,0.0034587060821059,0.0006098710221635,7.2979093463654019,4.0000000000000000,0.0000000000000000,1.8244773365913505,0.0000000000000000
7.3974232308940548,0.1178083199547086,0.9678046942750113,1.0321953057249889,0.0035200350016364,0.0006170587502872,7.3978807072651511,4.0000000000000000,0.0000000000000000,1.8494701768162878,0.0000000000000000
7.4973939614944403,0.1181633173973226,0.9677256812524629,1.0322743187475369,0.0035820824780139,0.0006242462760657,7.4978520681639562,4.0000000000000000,0.0000000000000000,1.8744630170409891,0.0000000000000000
7.5973646697449633,0.1185245536873823,0.9680040559287224,1.0319959440712776,0.0036448484944651,0.0006314336686251,7.5978234290618074,4.0000000000000000,0.0000000000000000,1.8994558572654519,0.0000000000000000
7.6973353549922026,0.1188921006557129,0.9683128234863766,1.0316871765136233,0.0037083330363059,0.0006386209006387,7.6977947899586985,4.0000000000000000,0.0000000000000000,1.9244486974896746,0.0000000000000000
7.7973060165691397,0.1192660301315037,0.9688247536584390,1.0311752463415611,0.0037725360874097,0.0006458079705825,7.7977661508546241,4.0000000000000000,0.0000000000000000,1.9494415377136560,0.0000000000000000
7.8972766537950045,0.1196464139422352,0.9696455324015377,1.0303544675984622,0.0038374576311515,0.0006529948699898,7.8977375117495772,4.0000000000000000,0.0000000000000000,1.9744343779373943,0.0000000000000000
7.9972472659751244,0.1200333239136076,0.9700308102751780,1.0299691897248222,0.0039030976501517,0.0006601815922506,7.9977088726435541,4.0000000000000000,0.0000000000000000,1.9994272181608885,0.0000000000000000
8.0972178524007674,0.1204268318694679,0.9704218864592898,1.0295781135407100,0.0039694561263444,0.0006673681302287,8.0976802335365541,4.0000000000000000,0.0000000000000000,2.0244200583841385,0.0000000000000000
8.1971884123489858,0.1208270096317370,0.9708187966997648,1.0291812033002352,0.0040365330409555,0.0006745544769110,8.1976515944285708,4.0000000000000000,0.0000000000000000,2.0494128986071427,0.0000000000000000
8.2971589450824705,0.1212339290203375,0.9712215738233742,1.0287784261766260,0.0041043283745075,0.0006817406252192,8.2976229553196053,4.0000000000000000,0.0000000000000000,2.0744057388299013,0.0000000000000000
8.3971294498493911,0.1216476618531199,0.9716302474320584,1.0283697525679416,0.0041728421068157,0.0006889265680975,8.3975943162096609,4.0000000000000000,0.0000000000000000,2.0993985790524152,0.0000000000000000
8.4970999258832389,0.1220682799457897,0.9720448435593222,1.0279551564406777,0.0042420742169873,0.0006961122984297,8.4975656770987378,4.0000000000000000,0.0000000000000000,2.1243914192746844,0.0000000000000000
8.5970703724026816,0.1224958551118334,0.9724653842831913,1.0275346157168088,0.0043120246834194,0.0007032978091225,8.5975370379868412,4.0000000000000000,0.0000000000000000,2.1493842594967103,0.0000000000000000
8.6970407886113996,0.1229304591624452,0.9728918872892491,1.0271081127107509,0.0043826934837967,0.0007104830930279,8.6975083988739730,4.0000000000000000,0.0000000000000000,2.1743770997184932,0.0000000000000000
8.7970111736979444,0.1233721639064527,0.9733214492506020,1.0266785507493981,0.0044540805950912,0.0007176681430221,8.7974797597601437,4.0000000000000000,0.0000000000000000,2.1993699399400359,0.0000000000000000
8.8969815268355710,0.1238210411502427,0.9737643409280575,1.0262356590719424,0.0045261859935595,0.0007248529519278,8.8974511206453588,4.0000000000000000,0.0000000000000000,2.2243627801613397,0.0000000000000000
8.9969518471820926,0.1242771626976868,0.9742266765295993,1.0257733234704007,0.0045990096547404,0.0007320375125603,8.9974224815296253,4.0000000000000000,0.0000000000000000,2.2493556203824063,0.0000000000000000
9.0969221338797297,0.1247406003500665,0.9746960548369403,1.0253039451630599,0.0046725515534547,0.0007392218177299,9.0973938424129575,4.0000000000000000,0.0000000000000000,2.2743484606032394,0.0000000000000000
9.1968923860549499,0.1252114259059987,0.9751725358106705,1.0248274641893296,0.0047468116638028,0.0007464058602337,9.1973652032953677,4.0000000000000000,0.0000000000000000,2.2993413008238419,0.0000000000000000
9.2968626028183134,0.1256897111613600,0.9756648472910077,1.0243351527089923,0.0048217899591616,0.0007535896327795,9.2973365641768684,4.0000000000000000,0.0000000000000000,2.3243341410442171,0.0000000000000000
9.3968327832643261,0.1261755279092116,0.9761664030244804,1.0238335969755197,0.0048974864121838,0.0007607731281841,9.3973079250574774,4.0000000000000000,0.0000000000000000,2.3493269812643693,0.0000000000000000
