# x_m,y_m,w_tr_right_m,w_tr_left_m,psi,kappa,s,velocity,acceleration,time,n
-0.0015529275694717,0.7104246580979190,1.6104513709746202,0.3895486290253799,0.0025497148168556,0.0005036880083793,0.0000000000000000,4.0000000000000000,0.0000000000000000,0.0000000000000000,0.0000000000000000
0.0984409461736565,0.7106821366226886,1.6107317208607850,0.3892682791392145,0.0026001993385467,0.0005060609380870,0.0999942052388406,4.0000000000000000,0.0000000000000000,0.0249985513097102,0.0000000000000000
0.1984348067594293,0.7109446751542051,1.6109707600943663,0.3890292399056334,0.0026509211681627,0.0005084344419258,0.1999884104775818,4.0000000000000000,0.0000000000000000,0.0499971026193955,0.0000000000000000
0.2984286538682863,0.7112122974216577,1.6113032642126424,0.3886967357873578,0.0027018802928753,0.0005108071150566,0.2999826157162231,4.0000000000000000,0.0000000000000000,0.0749956539290558,0.0000000000000000
0.3984224871770561,0.7114850271512709,1.6116535813548287,0.3883464186451713,0.0027530767203137,0.0005131807714747,0.3999768209547641,4.0000000000000000,0.0000000000000000,0.0999942052386910,0.0000000000000000
0.4984163063589203,0.7117628880732494,1.6117817419521745,0.3882182580478250,0.0028045104646286,0.0005155537276522,0.4999710261932042,4.0000000000000000,0.0000000000000000,0.1249927565483011,0.0000000000000000
0.5984101110834161,0.7120459039145917,1.6120571084034152,0.3879428915965846,0.0028561814862107,0.0005179265918231,0.5999652314315432,4.0000000000000000,0.0000000000000000,0.1499913078578858,0.0000000000000000
0.6984039010164128,0.7123340984018037,1.6123544427870204,0.3876455572129796,0.0029080898198104,0.0005203002430592,0.6999594366697806,4.0000000000000000,0.0000000000000000,0.1749898591674451,0.0000000000000000
0.7983976758200816,0.7126274952652146,1.6126596206821924,0.3873403793178073,0.0029602354674063,0.0005226731468026,0.7999536419079156,4.0000000000000000,0.0000000000000000,0.1999884104769789,0.0000000000000000
0.8983914351528970,0.7129261182327336,1.6129723586846738,0.3870276413153271,0.0030126184299109,0.0005250468162861,0.8999478471459480,4.0000000000000000,0.0000000000000000,0.2249869617864870,0.0000000000000000
0.9983851786696096,0.7132299910335068,1.6132921943496086,0.3867078056503915,0.0030652386677168,0.0005274189278394,0.9999420523838775,4.0000000000000000,0.0000000000000000,0.2499855130959694,0.0000000000000000
1.0983789060212492,0.7135391373910724,1.6136113283626938,0.3863886716373057,0.0031180962087280,0.0005297931554341,1.0999362576217033,4.0000000000000000,0.0000000000000000,0.2749840644054258,0.0000000000000000
1.1983726168550655,0.7138535810375363,1.6139311542856962,0.3860688457143038,0.0031711910712846,0.0005321656338078,1.1999304628594254,4.0000000000000000,0.0000000000000000,0.2999826157148563,0.0000000000000000
1.2983663108145553,0.7141733456988354,1.6142564619300508,0.3857435380699495,0.0032245232276835,0.0005345393073172,1.2999246680970427,4.0000000000000000,0.0000000000000000,0.3249811670242607,0.0000000000000000
1.3983599875394170,0.7144984551044891,1.6145873032403746,0.3854126967596254,0.0032780926944045,0.0005369121152949,1.3999188733345553,4.0000000000000000,0.0000000000000000,0.3499797183336388,0.0000000000000000
1.4983536466655514,0.7148289329815178,1.6149234097770575,0.3850765902229424,0.0033318994673779,0.0005392857074083,1.4999130785719628,4.0000000000000000,0.0000000000000000,0.3749782696429907,0.0000000000000000
1.5983472878250327,0.7151648030582635,1.6152462918793364,0.3847537081206632,0.0033859435127417,0.0005416578381137,1.5999072838092643,4.0000000000000000,0.0000000000000000,0.3999768209523161,0.0000000000000000
1.6983409106461103,0.7155060890591405,1.6155141223281733,0.3844858776718262,0.0034402248935206,0.0005440326907878,1.6999014890464594,4.0000000000000000,0.0000000000000000,0.4249753722616149,0.0000000000000000
1.7983345147531387,0.7158528147199165,1.6158615198338062,0.3841384801661938,0.0034947436159904,0.0005464049470215,1.7998956942835478,4.0000000000000000,0.0000000000000000,0.4499739235708869,0.0000000000000000
1.8983280997666434,0.7162050037637385,1.6162152761649837,0.3837847238350159,0.0035494995557488,0.0005487773115003,1.8998898995205293,4.0000000000000000,0.0000000000000000,0.4749724748801323,0.0000000000000000
1.9983216653032545,0.7165626799153996,1.6165746018972345,0.3834253981027656,0.0036044928766485,0.0005511528449812,1.9998841047574030,4.0000000000000000,0.0000000000000000,0.4999710261893507,0.0000000000000000
2.0983152109756560,0.7169258669110180,1.6169395004467961,0.3830604995532038,0.0036597234386535,0.0005535224085714,2.0998783099941689,4.0000000000000000,0.0000000000000000,0.5249695774985422,0.0000000000000000
2.1983087363926854,0.7172945884651938,1.6173099803160207,0.3826900196839796,0.0037151913340856,0.0005558997886020,2.1998725152308256,4.0000000000000000,0.0000000000000000,0.5499681288077064,0.0000000000000000
2.2983022411591354,0.7176688683215784,1.6176860668858570,0.3823139331141434,0.0037708965615675,0.0005582693246467,2.2998667204673739,4.0000000000000000,0.0000000000000000,0.5749666801168435,0.0000000000000000
2.3982957248759469,0.7180487301949287,1.6180683660179431,0.3819316339820564,0.0038268390408902,0.0005606451003991,2.3998609257038130,4.0000000000000000,0.0000000000000000,0.5999652314259533,0.0000000000000000
2.4982891871400081,0.7184341978211511,1.6184547406013072,0.3815452593986934,0.0038830188638335,0.0005630164721460,2.4998551309401420,4.0000000000000000,0.0000000000000000,0.6249637827350355,0.0000000000000000
2.5982826275442594,0.7188252949247239,1.6188463480368402,0.3811536519631601,0.0039394360371012,0.0005653923819864,2.5998493361763604,4.0000000000000000,0.0000000000000000,0.6499623340440901,0.0000000000000000
2.6982760456775874,0.7192220452417897,1.6192436422661598,0.3807563577338406,0.0039960904511718,0.0005677615631712,2.6998435414124673,4.0000000000000000,0.0000000000000000,0.6749608853531168,0.0000000000000000
2.7982694411249551,0.7196244724836138,1.6196466529717772,0.3803533470282227,0.0040529821430422,0.0005701382129956,2.7998377466484641,4.0000000000000000,0.0000000000000000,0.6999594366621160,0.0000000000000000
2.8982628134671642,0.7200326003908842,1.6200554033461607,0.3799445966538390,0.0041101112126605,0.0005725093932604,2.8998319518843494,4.0000000000000000,0.0000000000000000,0.7249579879710873,0.0000000000000000
2.9982561622810340,0.7204464526853168,1.6204699165548964,0.3795300834451039,0.0041674775388567,0.0005748836195412,2.9998261571201219,4.0000000000000000,0.0000000000000000,0.7499565392800305,0.0000000000000000
3.0982494871392787,0.7208660530962108,1.6208902157916361,0.3791097842083637,0.0042250811667952,0.0005772557031499,3.0998203623557821,4.0000000000000000,0.0000000000000000,0.7749550905889455,0.0000000000000000
3.1982427876105377,0.7212914253487075,1.6213163242569102,0.3786836757430898,0.0042829221419043,0.0005796308380404,3.1998145675913290,4.0000000000000000,0.0000000000000000,0.7999536418978322,0.0000000000000000
3.2982360632592806,0.7217225931820842,1.6217482651674480,0.3782517348325524,0.0043410005388518,0.0005820044151016,3.2998087728267627,4.0000000000000000,0.0000000000000000,0.8249521932066907,0.0000000000000000
3.3982293136459112,0.7221595803211943,1.6221860617207260,0.3778139382792738,0.0043993160071090,0.0005843725390059,3.3998029780620818,4.0000000000000000,0.0000000000000000,0.8499507445155204,0.0000000000000000
3.4982225383267886,0.7226024104690232,1.6226297370811591,0.3773702629188411,0.0044578687875352,0.0005867509335368,3.4997971832972867,4.0000000000000000,0.0000000000000000,0.8749492958243217,0.0000000000000000
3.5982157368538936,0.7230511073784306,1.6230793144454900,0.3769206855545106,0.0045166591097496,0.0005891236500916,3.5997913885323780,4.0000000000000000,0.0000000000000000,0.8999478471330945,0.0000000000000000
3.6982089087751340,0.7235056947777424,1.6235348169655308,0.3764651830344695,0.0045756865769955,0.0005914941090204,3.6997855937673534,4.0000000000000000,0.0000000000000000,0.9249463984418383,0.0000000000000000
3.7982020536342960,0.7239661963801414,1.6239962677529798,0.3760037322470201,0.0046349513586359,0.0005938702130414,3.7997797990022129,4.0000000000000000,0.0000000000000000,0.9499449497505532,0.0000000000000000
3.8981951709708382,0.7244326359243154,1.6244636899171558,0.3755363100828439,0.0046944534872371,0.0005962413233234,3.8997740042369555,4.0000000000000000,0.0000000000000000,0.9749435010592389,0.0000000000000000
3.9981882603200707,0.7249050371319135,1.6249371065207803,0.3750628934792198,0.0047541929195909,0.0005986165631431,3.9997682094715818,4.0000000000000000,0.0000000000000000,0.9999420523678955,0.0000000000000000
4.0981813212130005,0.7253834237371501,1.6254165406077765,0.3745834593922232,0.0048141696642034,0.0006009878435491,4.0997624147060918,4.0000000000000000,0.0000000000000000,1.0249406036765230,0.0000000000000000
4.1981743531764355,0.7258678194608323,1.6259020151761432,0.3740979848238576,0.0048743837074794,0.0006033628114485,4.1997566199404837,4.0000000000000000,0.0000000000000000,1.0499391549851209,0.0000000000000000
4.2981673557328532,0.7263582480351152,1.6263935532024032,0.3736064467975967,0.0049348350360259,0.0006057338239844,4.2997508251747583,4.0000000000000000,0.0000000000000000,1.0749377062936896,0.0000000000000000
4.3981603284004995,0.7268547331784975,1.6268911776167698,0.3731088223832300,0.0049955236503192,0.0006081088014054,4.3997450304089130,4.0000000000000000,0.0000000000000000,1.0999362576022282,0.0000000000000000
4.4981532706932326,0.7273572986254757,1.6273949113323711,0.3726050886676288,0.0050564496346852,0.0006104815005611,4.4997392356429478,4.0000000000000000,0.0000000000000000,1.1249348089107369,0.0000000000000000
4.5981461821206162,0.7278659681040500,1.6279047772243365,0.3720952227756634,0.0051176129390298,0.0006128554760384,4.5997334408768662,4.0000000000000000,0.0000000000000000,1.1499333602192165,0.0000000000000000
4.6981390621878392,0.7283807653466130,1.6284207981406258,0.3715792018593749,0.0051790136189493,0.0006152292871834,4.6997276461106647,4.0000000000000000,0.0000000000000000,1.1749319115276662,0.0000000000000000
4.7981319103957585,0.7289017140794244,1.6289429968941183,0.3710570031058822,0.0052406514526406,0.0006175988263465,4.7997218513443389,4.0000000000000000,0.0000000000000000,1.1999304628360847,0.0000000000000000
4.8981247262409537,0.7294288380112669,1.6294713962516010,0.3705286037483990,0.0053025265661093,0.0006199751577487,4.8997160565778959,4.0000000000000000,0.0000000000000000,1.2249290141444740,0.0000000000000000
4.9981175092154082,0.7299621608871726,1.6300060189890007,0.3699939810109987,0.0053646392431230,0.0006223503725866,4.9997102618113312,4.0000000000000000,0.0000000000000000,1.2499275654528328,0.0000000000000000
5.0981102588067522,0.7305017064407942,1.6305468878466318,0.3694531121533686,0.0054269889715761,0.0006247164612904,5.0997044670446430,4.0000000000000000,0.0000000000000000,1.2749261167611607,0.0000000000000000
5.1981029744983900,0.7310474983688683,1.6310940255050859,0.3689059744949142,0.0054895760700087,0.0006270980472962,5.1996986722778340,4.0000000000000000,0.0000000000000000,1.2999246680694585,0.0000000000000000
5.2980956557689298,0.7315995604318734,1.6316474546868811,0.3683525453131193,0.0055524005840855,0.0006294650493514,5.2996928775109033,4.0000000000000000,0.0000000000000000,1.3249232193777258,0.0000000000000000
5.3980883020927957,0.7321579163390142,1.6322071980455992,0.3677928019544014,0.0056154623896090,0.0006318441512584,5.3996870827438501,4.0000000000000000,0.0000000000000000,1.3499217706859625,0.0000000000000000
5.4980809129397414,0.7327225898332173,1.6327732782510307,0.3672267217489693,0.0056787614140819,0.0006342097032811,5.4996812879766726,4.0000000000000000,0.0000000000000000,1.3749203219941681,0.0000000000000000
5.5980734877752587,0.7332936046159509,1.6333457179178226,0.3666542820821773,0.0057422978425883,0.0006365925070928,5.5996754932093689,4.0000000000000000,0.0000000000000000,1.3999188733023422,0.0000000000000000
5.6980660260599789,0.7338709844501312,1.6339245397084365,0.3660754602915630,0.0058060716100641,0.0006389567577522,5.6996696984419426,4.0000000000000000,0.0000000000000000,1.4249174246104857,0.0000000000000000
5.7980585272504159,0.7344547530257669,1.6345097662046810,0.3654902337953190,0.0058700824509599,0.0006413342502735,5.7996639036743929,4.0000000000000000,0.0000000000000000,1.4499159759185982,0.0000000000000000
5.8980509907982333,0.7350449340846360,1.6351014200296412,0.3648985799703585,0.0059343308614814,0.0006437084256128,5.8996581089067153,4.0000000000000000,0.0000000000000000,1.4749145272266788,0.0000000000000000
5.9980434161505620,0.7356415513640980,1.6356995237977463,0.3643004762022536,0.0059988165461520,0.0006460800082681,5.9996523141389142,4.0000000000000000,0.0000000000000000,1.4999130785347285,0.0000000000000000
6.0980358027500712,0.7362446285796896,1.6363041000914880,0.3636958999085123,0.0060635394065831,0.0006484522157200,6.0996465193709861,4.0000000000000000,0.0000000000000000,1.5249116298427465,0.0000000000000000
6.1980281500347960,0.7368541894537910,1.6369151709256577,0.3630848290743422,0.0061284996856446,0.0006508286560470,6.1996407246029310,4.0000000000000000,0.0000000000000000,1.5499101811507328,0.0000000000000000
6.2980204574380130,0.7374702577321660,1.6375327306727094,0.3624672693272905,0.0061936974204269,0.0006532016053629,6.2996349298347498,4.0000000000000000,0.0000000000000000,1.5749087324586875,0.0000000000000000
6.3980127243885025,0.7380928571370278,1.6381561163578020,0.3618438836421979,0.0062591322180210,0.0006555701870464,6.3996291350664380,4.0000000000000000,0.0000000000000000,1.5999072837666095,0.0000000000000000
6.4980049503105164,0.7387220113749213,1.6387792704616870,0.3612207295383129,0.0063248044396937,0.0006579503621170,6.4996233402980117,4.0000000000000000,0.0000000000000000,1.6249058350745029,0.0000000000000000
6.5979971346220259,0.7393577442002712,1.6394134779629053,0.3605865220370948,0.0063907140033739,0.0006603173023012,6.5996175455281758,4.0000000000000000,0.0000000000000000,1.6499043863820440,0.0000000000000000
6.6979892767966422,0.7400000699811904,1.6399656247649397,0.3600343752350599,0.0064565807048140,0.0006570930676905,6.6996117507556665,4.0000000000000000,0.0000000000000000,1.6749029376889166,0.0000000000000000
6.7979813767780941,0.7406489311110910,1.6375469403074578,0.3624530596925423,0.0065210844219856,0.0006330560371588,6.7996059559851023,4.0000000000000000,0.0000000000000000,1.6999014889962756,0.0000000000000000
6.8979734355415667,0.7413041139157184,1.5979439086283147,0.4020560913716857,0.0065829440331611,0.0006042078831004,6.8996001612185323,4.0000000000000000,0.0000000000000000,1.7249000403046331,0.0000000000000000
6.9979654545395826,0.7419653379708632,1.5921906960464298,0.4078093039535701,0.0066419190797964,0.0005753614030464,6.9995943664533895,4.0000000000000000,0.0000000000000000,1.7498985916133474,0.0000000000000000
7.0979574353314749,0.7426323148342315,1.5926313624740842,0.4073686375259158,0.0066980092813624,0.0005465076380825,7.0995885716896048,4.0000000000000000,0.0000000000000000,1.7748971429224012,0.0000000000000000
7.1979493795265412,0.7433047560397390,1.5933041133549684,0.4066958866450316,0.0067512149237114,0.0005176668754057,7.1995827769271292,4.0000000000000000,0.0000000000000000,1.7998956942317823,0.0000000000000000
7.2979412887810220,0.7439823731691226,1.5939839508049034,0.4060160491950971,0.0068015358465945,0.0004888099052862,7.2995769821658847,4.0000000000000000,0.0000000000000000,1.8248942455414712,0.0000000000000000
7.3979331647963633,0.7446648777447903,1.5946366934166409,0.4053633065833588,0.0068489720422351,0.0004599689870752,7.3995711874058046,4.0000000000000000,0.0000000000000000,1.8498927968514511,0.0000000000000000
7.4979250093159262,0.7453519813456639,1.5949347863001806,0.4050652136998188,0.0068935236005954,0.0004311138163044,7.4995653926468222,4.0000000000000000,0.0000000000000000,1.8748913481617056,0.0000000000000000
7.5979168241232244,0.7460433954987097,1.5955316661756942,0.4044683338243056,0.0069351902902008,0.0004022682683381,7.5995595978888666,4.0000000000000000,0.0000000000000000,1.8998898994722166,0.0000000000000000
7.6979086110388319,0.7467388317672250,1.5961836036434345,0.4038163963565662,0.0069739724628586,0.0003734201341218,7.6995538031318693,4.0000000000000000,0.0000000000000000,1.9248884507829673,0.0000000000000000
7.7979003719181419,0.7474380017124782,1.5970357347026487,0.4029642652973512,0.0070098699574479,0.0003445713635588,7.7995480083757602,4.0000000000000000,0.0000000000000000,1.9498870020939401,0.0000000000000000
7.8978921086489420,0.7481406168846069,1.5981300897523942,0.4018699102476054,0.0070428826581672,0.0003157209131774,7.8995422136204727,4.0000000000000000,0.0000000000000000,1.9748855534051182,0.0000000000000000
7.9978838231488485,0.7488463888316870,1.5988532035035554,0.4011467964964444,0.0070730107807928,0.0002868764583951,7.9995364188659375,4.0000000000000000,0.0000000000000000,1.9998841047164844,0.0000000000000000
8.0978755173626702,0.7495550291197868,1.5995598676632139,0.4004401323367862,0.0071002540441600,0.0002580203843977,8.0995306241120826,4.0000000000000000,0.0000000000000000,2.0248826560280206,0.0000000000000000
8.1978671932603291,0.7502662492749692,1.6002679255358150,0.3997320744641846,0.0071246126858320,0.0002291806811526,8.1995248293588450,4.0000000000000000,0.0000000000000000,2.0498812073397112,0.0000000000000000
8.2978588528336115,0.7509797608878115,1.6009773916739118,0.3990226083260878,0.0071460867621529,0.0002003257341076,8.2995190346061527,4.0000000000000000,0.0000000000000000,2.0748797586515382,0.0000000000000000
8.3978504980945363,0.7516952754921741,1.6016879381483093,0.3983120618516907,0.0071646760352253,0.0001714812726414,8.3995132398539347,4.0000000000000000,0.0000000000000000,2.0998783099634837,0.0000000000000000
8.4978421310722325,0.7524125046543735,1.6023992302810850,0.3976007697189151,0.0071803806645196,0.0001426295151853,8.4995074451021253,4.0000000000000000,0.0000000000000000,2.1248768612755313,0.0000000000000000
8.5978337538108445,0.7531311599155484,1.6031109206437213,0.3968890793562786,0.0071932004615505,0.0001137812838031,8.5995016503506569,4.0000000000000000,0.0000000000000000,2.1498754125876642,0.0000000000000000
8.6978253683667681,0.7538509528290908,1.6038224513015058,0.3961775486984940,0.0072031356272011,0.0000849335442375,8.6994958555994550,4.0000000000000000,0.0000000000000000,2.1748739638998638,0.0000000000000000
8.7978169768062031,0.7545715949553726,1.6045318589706763,0.3954681410293238,0.0072101861187015,0.0000560844574143,8.7994900608484574,4.0000000000000000,0.0000000000000000,2.1998725152121144,0.0000000000000000
8.8978085812026979,0.7552927978538385,1.6052480132825961,0.3947519867174035,0.0072143520841319,0.0000272396796184,8.8994842660975912,4.0000000000000000,0.0000000000000000,2.2248710665243978,0.0000000000000000
8.9978001836345918,0.7560142730930129,1.6059752064723898,0.3940247935276099,0.0072156332159063,-0.0000016155592726,8.9994784713467890,4.0000000000000000,0.0000000000000000,2.2498696178366973,0.0000000000000000
9.0977917861828885,0.7567357321987336,1.6067027329165471,0.3932972670834530,0.0072140295864367,-0.0000304588887546,9.0994726765959815,4.0000000000000000,0.0000000000000000,2.2748681691489954,0.0000000000000000
9.1977833909281301,0.7574568867417750,1.6074304620839517,0.3925695379160487,0.0072095412806907,-0.0000593124281895,9.1994668818451029,4.0000000000000000,0.0000000000000000,2.2998667204612757,0.0000000000000000
9.2977749999484214,0.7581774482642981,1.6081648280379459,0.3918351719620538,0.0072021683767232,-0.0000881541964875,9.2994610870940804,4.0000000000000000,0.0000000000000000,2.3248652717735201,0.0000000000000000
9.3977666153164670,0.7588971283472915,1.6088981549611086,0.3911018450388916,0.0071919107854728,-0.0001170095172469,9.3994552923428500,4.0000000000000000,0.0000000000000000,2.3498638230857125,0.0000000000000000
