# x_m,y_m,w_tr_right_m,w_tr_left_m,psi,kappa,s,velocity,acceleration,time,n
0.0445808604957746,-0.1485823647536866,0.7608669620190861,0.9232858768624082,0.3817783912802613,-0.3113156071499585,0.0194202395960979,4.4854041226185011,-0.1550138340179043,0.0000000000000000,0.1384837842317462
0.1377773460267397,-0.1111661856531322,0.7972033684240941,0.8037774033835775,0.3505139405805016,-0.4162396467992359,0.1179078297894090,4.4819320651022654,0.0000000000000000,0.0223983719790755,0.1009338895611014
0.2327984954555087,-0.0797679222807071,0.8289042398548581,0.7708308606185627,0.2983218479845198,-0.4231441945828894,0.2148216302920867,4.4819320651022654,0.0000000000000000,0.0447267606819706,0.0654110699210798
0.3284016918700436,-0.0525494910875788,0.8564862432235206,0.7358871981944842,0.2661065728909244,-0.2751599998984925,0.3094788569035207,4.4819320651022654,3.3223895482899701,0.0669052058354041,0.0304063696892850
0.4239000632619216,-0.0276791802592729,0.8828636426490934,0.6432219349486845,0.2438165103903196,-0.2231321203297586,0.4015621847753824,4.5544973792716785,4.3269379828678440,0.0887465080411501,0.0056353118941065
0.5194360600171167,-0.0050267174510496,0.9133350248013794,0.6229859996208673,0.2221788819958559,-0.2175296765551860,0.4919399660833289,4.6468404011919535,4.2502489767132436,0.1100879329207993,0.0424365696061525
0.6151230537798378,0.0155196955198697,0.9517250803913397,0.6163219648474855,0.2011691901983235,-0.2122961378023731,0.5804840580465775,4.7355097826032928,4.1791593942613154,0.1309500946193612,0.0797858844647579
0.7110522941464636,0.0340491133317114,0.9892987801829449,0.5816714689326296,0.1806600306128658,-0.2086618442623314,0.6676600896712441,4.8209626306405440,4.0798007553899316,0.1513974717054310,0.1175310676010985
0.8072970161226115,0.0506205574635084,1.0244594549665391,0.5471853854890929,0.1604043158177222,-0.2080125898135308,0.7558181196497935,4.9029129140142684,3.9114047232246349,0.1714843064032917,0.1556227024224931
0.9039139131179793,0.0652530304069597,1.0614367360698767,0.5454828977463342,0.1400186165697772,-0.2103303773133272,0.8418158756417499,4.9802599731714405,3.6694341022057890,0.1912590586036740,0.1938232913589337
1.0009421527513447,0.0779130736841287,1.0838444479410498,0.5292874934955955,0.1192701449590239,-0.2132869359886058,0.9277656783247356,5.0518415117478011,3.4162918824763038,0.2107665730003301,0.2318319149422681
1.0983959276763324,0.0885595480173830,1.1224720120217730,0.5008463729117292,0.0982390593978553,-0.2152229572994012,1.0145874649890756,5.1177070457819767,3.1999482360420286,0.2300464051399753,0.2694250262123289
1.1962666254038872,0.0971635342076822,1.1450169449692651,0.4770195381634420,0.0770258040638383,-0.2164405399345824,1.1032098199512204,5.1787743236337507,3.0122028822324398,0.2491302381732581,0.3064528437851806
1.2945281582098227,0.1036967388134196,1.1895110249403347,0.4611842626896233,0.0556594373706181,-0.2173577340058688,1.1914035344104674,5.2357404285459443,2.8405863442787345,0.2680420137539170,0.3425592362284458
1.3931397517005926,0.1081327113957129,1.2298305051603666,0.4428955314787083,0.0341650758595065,-0.2180483805081150,1.2811769987391377,5.2890239058588095,2.6827596635312436,0.2867999287950085,0.3774887044937915
1.4920485346868648,0.1104476643420060,1.2694814478817138,0.4126404584442383,0.0125627882161998,-0.2185911304628953,1.3728712599390807,5.3389714551587142,2.5361018065496950,0.3054179026593389,0.4109693240141919
1.5911919657360629,0.1106209303176962,1.2960774966540318,0.3866708417953692,-0.0091333355582039,-0.2190678316015375,1.4667605244003881,5.3858604360051299,2.3977904865954645,0.3239065062025094,0.4427065683919624
1.6905001213226931,0.1086350890085628,1.3084701479920238,0.3706421138315904,-0.0309159529132641,-0.2195614566062810,1.5620985661895113,5.4299013016095179,2.2648980691773768,0.3422737763416616,0.4723795749887404
1.7898978648296024,0.1044757901392051,1.3186745481153797,0.3502185820021712,-0.0527849497253898,-0.2202544621019738,1.6600583978769019,5.4712405982257160,2.1311278476141102,0.3605259428204880,0.4996563427525293
1.8893063046657599,0.0981313574592768,1.3296481270490665,0.3381627465611311,-0.0747676073889072,-0.2219801538339828,1.7605122197736820,5.5099038029863001,1.9680598426805294,0.3786680757778652,0.5242093129143385
1.9886419152954911,0.0895884215606736,1.3405394042534784,0.3251974570817454,-0.0970284743914271,-0.2260905460734170,1.8633911511009504,5.5454017021393840,1.7294259192250010,0.3967050776937902,0.5457072919900554
2.0878170447083133,0.0788094897102701,1.3523148495992763,0.3260115225027673,-0.1198639559059318,-0.2311705789105110,1.9725594094010941,5.5764264740845197,1.4656786025557353,0.4146444248495439,0.5638025455641223
2.1867496546515355,0.0657280644486329,1.3646421746787543,0.3300837771341605,-0.1431592293095749,-0.2329778761613823,2.0802845939659642,5.6025943310388095,1.3266947958447446,0.4324981732147450,0.5781244932065250
2.2853757145018809,0.0503323341708569,1.3736280924044706,0.3342511603361061,-0.1663696464182642,-0.2304071497231208,2.1895210421027493,5.6261821744760399,1.3486749490730887,0.4502775777251933,0.5884515247319089
2.3836439984546538,0.0326652103478622,1.3764467563884337,0.3310056535659406,-0.1891633051909578,-0.2259956006287609,2.2998205337731448,5.6500654424393106,1.4367222336431713,0.4679862687479525,0.5946572434123742
2.4815081795955249,0.0127823156863239,1.3757008454118016,0.3235507817283130,-0.2115026259084674,-0.2216794715112858,2.4106939586520921,5.6754023515758432,1.5196218920770881,0.4856214862891216,0.5966933203677186
2.5789239006694147,-0.0092640870573452,1.3725408606588727,0.3151204335678256,-0.2334421844624677,-0.2179943799325307,2.5216373021012473,5.7020828889553412,1.5783248454741610,0.5031788388901886,0.5945761473658601
2.6758480558919944,-0.0334272761777450,1.3639501091645343,0.3099999900021722,-0.2550513540703290,-0.2150822799257043,2.6321552743684316,5.7296657157216959,-1.2972678131555011,0.5206548526812964,0.5883825129616812
2.7722382133932477,-0.0596668535867096,1.3519402305634329,0.3103870288681034,-0.2764131581546603,-0.2130174748225269,2.7417853059554682,5.7070027787096507,-1.7393082615532212,0.5381245970025708,0.5782420399311287
2.8680515978469452,-0.0879505931876802,1.3389745234113031,0.3267008033909992,-0.2976119602869209,-0.2116965158337442,2.8501293534844558,5.6764746154962182,-1.8704169048264272,0.5556764961617057,0.5643233218746861
2.9632449523351250,-0.1182527514063654,1.3219087644218532,0.3528494344912683,-0.3187102810523641,-0.2109489273829198,2.9568701546527394,5.6434612635936761,-1.9861772055646167,0.5733267600239251,0.5468200741159580
3.0577748930160209,-0.1505514377013002,1.3058858936908382,0.3749921736089509,-0.3397585955510587,-0.2107453408380272,3.0617714712296653,5.6081935260864828,-2.0877002514563179,0.5910833516353808,0.5259391017479026
3.1515975200471482,-0.1848288463545027,1.2897320298400587,0.3955052279487464,-0.3608137412554600,-0.2111434759848211,3.1646739632471910,5.5708852023308841,-2.1729569383203944,0.6089538882363960,0.5018878704175850
3.2446677198598453,-0.2210721132157389,1.2740655481146750,0.4195550973408705,-0.3819379203216486,-0.2121648076310150,3.2633116291245430,5.5317899708325786,-2.2412431907949721,0.6269456076344455,0.4748406646235233
3.3369386817468918,-0.2592732632860069,1.2621675852836558,0.4482124318627869,-0.4031924543626735,-0.2137900276704957,3.3626276041084142,5.4911794171724519,-2.2933491895705802,0.6450652627557276,0.4449767803538659
3.4283615211278935,-0.2994288049372347,1.2501540065798644,0.4760723601551811,-0.4246358741844101,-0.2159890495382144,3.4598305434266505,5.4493170419561308,-2.3304734229067949,0.6633190792293365,0.4125142492335251
3.5188849297901710,-0.3415392612613042,1.2325117735987281,0.5041333384619856,-0.4463236678255238,-0.2187300726639335,3.5543127188858445,5.4064510604545655,-2.3538818547221387,0.6817127588483466,0.3776013284538053
3.6084548485077694,-0.3856086681362144,1.2088964596243295,0.5337263221022281,-0.4683081811955176,-0.2219803712933139,3.6480267757115517,5.3628130713953057,-2.3641082847957722,0.7002514926304679,0.3403679623426459
3.6970141664974308,-0.4316440412297676,1.1832289222366599,0.5616602499340898,-0.4906385242420579,-0.2257063424773547,3.7399044587804648,5.3186315344765154,-2.3530182451987658,0.7189399500090634,0.3009867205554266
3.7845024522709170,-0.4796548142648893,1.1558730019415793,0.5819926524152148,-0.5133604819727569,-0.2298735488653322,3.8305030987496762,5.2742959672646865,-2.3328209435509701,0.7377819489193115,0.2595797151451908
3.8708557204022416,-0.5296522513391813,1.1238209877046501,0.5941678789049599,-0.5365164300691649,-0.2344467521457663,3.9195838201553359,5.2299757734291275,-2.3047513444958239,0.7567804897023412,0.2162835816990533
3.9560062388088664,-0.5816488363598906,1.0850402098361216,0.6080860163937600,-0.5601452535729106,-0.2393899331061310,4.0080449245521699,5.1858221936355733,-2.2700114778241107,0.7759381224330917,0.1712085596882822
4.0398823812166444,-0.6356576430318858,1.0409374368371831,0.6303708415570717,-0.5842822676665573,-0.2446663017710889,4.0950317196782162,5.1419681872640828,-2.2297704279649104,0.7952569702891061,0.1245162420455300
4.1224085295033648,-0.6916916893783821,0.9947303507824923,0.6631099228504130,-0.6089591398912413,-0.2502383001659356,4.1818019667041897,5.0985282731787827,-2.1851668019718433,0.8147387579837018,0.0762647791465954
4.2035050306101081,-0.7497632814082077,0.9468075253596735,0.7035195881171644,-0.6342038135672374,-0.2560675997632009,4.2676359735319096,5.0555982926625989,-2.1373135208098901,0.8343848465465725,0.0266987744463585
4.2830882125983480,-0.8098833513755748,0.8963758575097770,0.7494103268818957,-0.6600404324563964,-0.2621150917002117,4.3535268932609075,5.0132550569133292,-2.0873045130868015,0.8541962758651990,0.0241802872573085
4.3610704642676090,-0.8720607969966778,0.8454828509517597,0.8055804337064185,-0.6864892663843327,-0.2683408774879377,4.4392166565864857,4.9715558460606344,-2.0362232826485385,0.8741738165600293,0.0760652149502326
4.4373603824842975,-0.9363018290077656,0.7965597025406276,0.8715212567086505,-0.7135666397741303,-0.2747042555727391,4.5260744216972526,4.9305377236163466,-1.9851527239878142,0.8943180329599789,0.1288854840830429
4.5118629907054908,-1.0026093359737678,0.7461811525277872,0.9408174469423732,-0.7412848623051733,-0.2811637203545037,4.6120891111784621,4.8902166390406263,-1.9351868608021860,0.9146293591811285,0.1824490456887196
4.5844800319324808,-1.0709822760766423,0.6851278914201517,1.0109978361496226,-0.7696521674242103,-0.2876769452150060,4.7016445249586765,4.8505862735352459,-1.8874431921287533,0.9351081906098169,0.2363121943807498
4.6551103374599734,-1.1414151083678603,0.6121531406156442,1.0827176095884110,-0.7986726527874772,-0.2942007915168380,4.7940557742625582,4.8116166060222856,-1.8430767352226267,0.9557549934780972,0.2902953746190446
4.7236502736159691,-1.2138972752567978,0.5377753517376059,1.1566288025933460,-0.8283462373151615,-0.3006912993134581,4.8901642386772783,4.7732521487982007,-1.8032862606429829,0.9765704356628475,0.3439218668032564
4.7899942634809953,-1.2884127539462087,0.4657867101569106,1.2362751778086043,-0.8586686208109908,-0.3071040061771156,4.9908429838942219,4.7354099946705741,-1.7691706065456398,0.9975555421063100,0.3965578818626029
4.8540353845270614,-1.3649396895637480,0.3966992063671494,1.3295097977920851,-0.8896313305503920,-0.3133999532373362,5.1088246586569559,4.6979808390876263,-1.7419433901197319,1.0187118712045136,0.4472510384729037
4.9156660208874703,-1.4434501396376389,0.3397000534180090,1.4435065699541292,-0.9212229106059597,-0.3195380544567164,5.2390118428245875,4.6608254535827447,-1.7302060019790306,1.0400417179237733,0.4944594861203425
4.9747784030124427,-1.5239100779021888,0.3102253595077816,1.5791626306764619,-0.9534274869446566,-0.3251933853479447,5.3819745916717698,4.6236139016476576,-1.7286731060575788,1.0615487245417854,0.5354362667653616
5.0312656217512517,-1.6062792594314699,0.3099999900047498,1.7208788009625826,-0.9861697575722346,-0.3296994058648364,5.5799196234446038,4.5861198069342910,-1.7465517451867907,1.0832382473219921,0.5657847167888522
5.0850311990850185,-1.6905051398254611,0.3193630585014745,1.8283527277446545,-1.0193017633962653,-0.3335027145715649,5.7896521119126403,4.5479062463833584,-1.7885440705035256,1.1051176795553874,0.5799812215026511
5.1359924756444100,-1.7765215761511821,0.3301219800168968,1.8593711025400850,-1.0528379657429534,-0.3383098506720051,5.9934418707711172,4.5084161437039034,-1.8112389660460928,1.1271971481749878,0.5778034520803744
5.1840500784149404,-1.8642669646526580,0.3547749357429473,1.8119001587246346,-1.0869716213267488,-0.3446013499000356,6.1634166790708242,4.4680431090211803,-1.8010028288228084,1.1494874342385970,0.5646151758168126
5.2290868185232888,-1.9536815166722299,0.3888202861563725,1.7215826539501076,-1.1218134425976012,-0.3514079620339010,6.3059663490240450,4.4275037896279503,-1.8006835433535351,1.1719967378023941,0.5449922406305284
5.2709818794199021,-2.0446978056366065,0.4173032135892696,1.6182952009963287,-1.1573628165950685,-0.3580127058892737,6.4402916104041861,4.3865645580709103,-1.7995393128035928,1.1947321216560145,0.5215782156760850
5.3096166728875769,-2.1372381308836399,0.4391970401403099,1.5141421952494369,-1.1935867604853168,-0.3642348650241662,6.5673607872001174,4.3452304865268410,-1.8113305340472878,1.2177013734250537,0.4962752073259513
5.3448762901647910,-2.2312147323901788,0.4614137280199296,1.4261383136857020,-1.2304483317595571,-0.3700478588296797,6.6809021820114189,4.3031858850038178,-1.8375829105541963,1.2409133718608540,0.4700775296481758
5.3766504464268792,-2.3265303793366061,0.4876175546781127,1.3658751045343815,-1.2679092989030885,-0.3754375283250893,6.7922086102608734,4.2600653334224221,-1.8793550794862679,1.2643792798934832,0.4439254398903623
5.4048343587087633,-2.4230790963805933,0.5158706202859432,1.3258280612534863,-1.3059302342430357,-0.3803891697664603,6.9017423770303790,4.2154610771888938,-1.9378463101628054,1.2881130898160451,0.4183695777431790
5.4293295387953684,-2.5207470411370627,0.5426929610867037,1.2917581888428751,-1.3444706352251274,-0.3848875988980745,7.0099222164999375,4.1689156535279865,-2.0153392814230529,1.3121322410855785,0.3938587399866852
5.4500444755739341,-2.6194135476020675,0.5672642807879951,1.2531523145493679,-1.3834890900543422,-0.3894435777307180,7.1171164542486318,4.1198900949503052,-2.1057040285447335,1.3364584471143042,0.3707571662528417
5.4668951761333551,-2.7189523501547561,0.5924385326745475,1.2142867380216973,-1.4230496918265323,-0.3958551178257847,7.2236421718377324,4.0679640536571018,-2.1767291115207756,1.3611181526518810,0.3493588726642605
5.4797840813837455,-2.8192346419003589,0.6224929488706574,1.1912279854046717,-1.4634764525690072,-0.4056242043097026,7.3297717165569356,4.0134979327497646,-2.1739510585482158,1.3861401549851360,0.3299201427224839
5.4885684992737787,-2.9201271226362508,0.6589429636466522,1.1836795842192336,-1.5051404683433698,-0.4183657605140957,7.4357402307324838,3.9582616706313298,-2.1203269385254475,1.4115483912475117,0.3126994000386081
5.4930819290855366,-3.0214821622401757,0.6972262751036622,1.1807278060678199,-1.5482916005624023,-0.4333271838228008,7.5417444018028261,3.9035365842237146,-2.0414003638452463,1.4373581309689121,0.2979424838957892
5.4931378405086573,-3.1231320275317951,0.7290138962205823,1.1784308525341558,-1.5931515437527430,-0.4502241268850856,7.6479464668367108,3.8500106048698775,-1.9411571401302476,1.4635783571929408,0.2858833823496061
5.4885340897527373,-3.2248835299485021,0.7512678598177723,1.1662236972511526,-1.6399146768379111,-0.4687812190249604,7.7519440531907353,3.7983083361509125,-1.8228269994325041,1.4902131244923544,0.2766802590155378
5.4790580437614809,-3.3265131591586510,0.7657277207582305,1.1402586543789286,-1.6887482454438469,-0.4887252622528147,7.8588969120890582,3.7490042235739280,-1.6890018686660113,1.5172612824318266,0.2705865252577535
5.4644924916230835,-3.4277628107620624,0.7716269836362379,1.1128122703127401,-1.7397917549848536,-0.5097773729741135,7.9662919411836546,3.7026328482891073,-1.5417840542522676,1.5447161811771104,0.2677933744178844
5.4446224140234545,-3.5283362694358051,0.7693675055802534,1.0915587621249094,-1.7931554862306323,-0.5316443029941729,8.0741987992918780,3.6596953799530749,-1.3829635792528681,1.5725653914589330,0.2684502513322538
5.4192426536730265,-3.6278966690762995,0.7610948023489884,1.0770324227709374,-1.8489180655672035,-0.5540093086628652,8.1826841909492209,3.6206611043793240,-1.2142299586022134,1.6007904844110112,0.2726686284937977
5.3881664783785110,-3.7260652187801737,0.7468277158103886,1.0730496840823667,-1.9071230861849990,-0.5765230230780204,8.2918255028523742,3.5859627223648149,-1.0374295619344360,1.6293669346696202,0.2805109368279371
5.3512349373656907,-3.8224215473814955,0.7253980208971299,1.0823408968473391,-1.9677748245279876,-0.5987948638167032,8.4017255915662670,3.5559838118391465,-0.8548810064259014,1.6582642320145777,0.2919770652247710
5.3083267872851705,-3.9165060771839149,0.6972259379492922,1.1043147213792295,-2.0308331939530984,-0.6203858108408283,8.5125282097950947,3.5310366050129098,-0.6697613762401124,1.6874463130746498,0.3069884212151605
5.2593685760736379,-4.0078248700099222,0.6633684193877201,1.1406339788684106,-2.0962082178676038,-0.6408035856075699,8.6244328691609677,3.5113281124917592,-0.4865818315795452,1.7168724538171773,0.3253697350871960
5.2043442296136257,-4.0958573806737117,0.6218000080272663,1.1919619783456266,-2.1637544875390757,-0.6595007842879100,8.7377069287027105,3.4969124728919594,-0.3117205626964398,1.7464987955015836,0.3468292411487543
5.1433031723107723,-4.1800674547477463,0.5682243196870098,1.2549204745872833,-2.2332661602520352,-0.6758790646950241,8.8605658143682682,3.4876288403463396,-0.1541408328809363,1.7762807016591842,0.3706238036648659
5.0763656401957640,-4.2599177653166089,0.5035329742487590,1.3273398771757323,-2.3044738550030859,-0.6892907267436374,8.9791605843459035,3.4830207236175532,-0.0308529184905305,1.8061761981519651,0.3962547451448907
5.0037233472477487,-4.3348874153946717,0.4391000151630159,1.4131310224853952,-2.3770424823433753,-0.6987546755618248,9.1120818338745728,3.4820959012441235,0.0000000000000000,1.8361513972150156,0.4221771598222309
4.9256371348208772,-4.4044889725089922,0.3920958861361344,1.5162214369288458,-2.4505091081949804,-0.7010313981498668,9.2665683301980888,3.4820959012441235,0.0000000000000000,1.8661917009523874,0.4467441334958362
4.8424659509453516,-4.4682729818919462,0.3722275895559083,1.6236525172854630,-2.5238500967189466,-0.6897020744466433,9.4158207419555566,3.4820959012441235,0.1535288939477955,1.8962923610136750,0.4673715356874318
4.7547736062350943,-4.5258886200274349,0.3732733216170394,1.6946899107746196,-2.5951669404437925,-0.6668580946097810,9.6048621774110234,3.4867191275916563,0.4390854404851932,1.9264054311247956,0.4812771458858712
4.6632845718683313,-4.5772507547295280,0.3835768451282773,1.6877402371229557,-2.6637880755109435,-0.6494665535906233,9.7778237206381036,3.4999069140036974,0.6085117779375772,1.9564401013645296,0.4868341703657987
4.5685617412055635,-4.6223135119956922,0.4003883510774404,1.6043186893291226,-2.7314354203964535,-0.6479870571525284,9.9305212283337152,3.5180973133014102,0.5363124996735387,1.9863333589106125,0.4853610748716668
4.4710057397512371,-4.6608570812936758,0.4220914480278954,1.4818900105985808,-2.7997290480940937,-0.6550497887407070,10.0923066503803813,3.5340516097525758,0.3562411161920590,2.0160814935538984,0.4794070542235014
4.3710356380649333,-4.6926002250910637,0.4414066973795855,1.3574794405483086,-2.8688536521782937,-0.6608087997911166,10.2344812450691922,3.5446088847944033,0.2206588683173122,2.0457166888246650,0.4713811539300106
