# x_m,y_m,w_tr_right_m,w_tr_left_m,psi,kappa,s,velocity,acceleration,time,n
-0.0021282451307862,-0.8229790762958836,0.3267038120167997,1.0732961879832001,1.5863951936825000,0.8676900952258622,0.0000000000000000,2.1386019323829242,-0.1440795628200962,0.0000000000000000,0.0000000000000000
0.0973953628993191,-0.8289065072954073,0.3132520119412355,1.0914088225710237,1.6748231256052803,0.9067512302047311,0.0996999648625021,2.1318744734366608,0.0000000000000000,0.0466926662920480,0.0000000000000000
0.1959781077282954,-0.8437735304971343,0.3100010343792038,1.1264652914663307,1.7666009526876525,0.9351163943977021,0.1993974370315383,2.1318744734366608,0.0000000000000000,0.0934578362920997,0.0000000000000000
0.2927782207767144,-0.8676362455979757,0.3193411115636130,1.1776974388058561,1.8576777443760684,0.8926637498753884,0.2990954363001826,2.1318744734366608,0.2156416705867571,0.1402232535391703,0.0000000000000000
0.3870857506987737,-0.8999857891811729,0.3402290996163877,1.2041007979027654,1.9438784425388691,0.8370282431936193,0.3987970068497045,2.1419356659240925,0.4580205216115495,0.1868802491933724,0.0000000000000000
0.4783688603225488,-0.9400921471269761,0.3764809278208285,1.1789660585115058,2.0248305654172709,0.7872317928191028,0.4985022025531534,2.1631510461464858,0.6329987726658386,0.2331999646239099,0.0000000000000000
0.5662259350492276,-0.9872394851506550,0.4207633294345314,1.1186448648324585,2.1010657831080342,0.7422942711206995,0.5982104623025255,2.1921343162627225,0.7632857387163891,0.2789872099832892,0.0000000000000000
0.6503555799843369,-1.0407601517119918,0.4631787695566900,1.0431240274636804,2.1730283526292191,0.7014343887771994,0.6979213388711194,2.2265822779982933,0.8634055186950502,0.3241183581081077,0.0000000000000000
0.7305385359898638,-1.1000341126124134,0.5032673480704193,0.9587955111279636,2.2410920959283520,0.6640145007174600,0.7976344717805259,2.2649181837710559,0.9429614004409135,0.3685191697113314,0.0000000000000000
0.8066231860385831,-1.1644874006034094,0.5471057732942313,0.8710071144077945,2.3055730149739935,0.6295080873233135,0.8973495674575915,2.3060592689057819,1.0084898855014042,0.4121488295420404,0.0000000000000000
0.8785138874240579,-1.2335900104857511,0.5980628769884762,0.7934760653064580,2.3667390439931730,0.5974742213952490,0.9970663846864152,2.3492628960773190,1.0645791317436881,0.4549887506881577,0.0000000000000000
0.9461615224777039,-1.3068535384133861,0.6551923422838862,0.7348694171370000,2.4248184693340722,0.5675561260128765,1.0967847232844616,2.3940242854935398,1.1144460096971749,0.4970348401534900,0.0000000000000000
1.0095557511662516,-1.3838287864587759,0.7153262556905911,0.6909931192368586,2.4800064567531135,0.5394443885994821,1.1965044156358984,2.4400034233564982,1.1605142732667608,0.5382922339284043,0.0000000000000000
1.0687186694652218,-1.4641033647671822,0.7747377958937857,0.6571032808450307,2.5324700833422655,0.5128835879267295,1.2962253202860421,2.4869804527520039,1.2045756328378103,0.5787717269235820,0.0000000000000000
1.1236995546152106,-1.5472993915101108,0.8306907867811988,0.6304451454966256,2.5823526892858490,0.4876519335633754,1.3959473168449075,2.5348209298875637,1.2480559837874097,0.6184873544287263,0.0000000000000000
1.1745705091107086,-1.6330712970029784,0.8821428712801939,0.6029598379416752,2.6297772506785710,0.4635618895957402,1.4956703020747955,2.5834544477251118,1.2920873314756691,0.6574547713309413,0.0000000000000000
1.2214228169084689,-1.7211037593319993,0.9290919586912716,0.5679014289490059,2.6748493137202241,0.4404507091710808,1.5953941867247958,2.6328579185885204,1.3376243089694961,0.6956901673911950,0.0000000000000000
1.2643638891806663,-1.8111097667042186,0.9717364431305116,0.5281142345505160,2.7176593187812204,0.4181776086191052,1.6951188930466201,2.6830447633679366,1.3854941238314848,0.7332095548925183,0.0000000000000000
1.3035146918102791,-1.9028288049024555,1.0102691348873654,0.4897365619568663,2.7582846322141363,0.3966207048666966,1.7948443527575311,2.7340569268191599,1.4364374935295252,0.7700283061046510,0.0000000000000000
1.3390075662928422,-1.9960251641501452,1.0449422194510938,0.4551294500549167,2.7967912947119671,0.3756743667176676,1.8945705053758859,2.7859590895238813,1.4911399373073413,0.8061608652577754,0.0000000000000000
1.3709843765884648,-2.0904863548268979,1.0761462045262800,0.4243573972613623,2.8332354890130218,0.3552462154818961,1.9942972968651946,2.8388344882573189,1.5502629872974543,0.8416205812847759,0.0000000000000000
1.3995949316710019,-2.1860216194640798,1.1046829062390324,0.3977548893148332,2.8676647936655346,0.3352558188914586,2.0940246785185161,2.8927821537256584,1.6144591504544912,0.8764196224219091,0.0000000000000000
1.4249956383984161,-2.2824605308135140,1.1321199576511003,0.3764179937983350,2.9001192939216693,0.3156331209177491,2.1937526060238852,2.9479148425874633,1.6843884994251421,0.9105689465756260,0.0000000000000000
1.4473483487491257,-2.3796516652895301,1.1604459566098000,0.3618916981594574,2.9306325615919455,0.2963173747713618,2.2934810386835722,3.0043576300471972,1.7607306161925147,0.9440783106439494,0.0000000000000000
1.4668193722428646,-2.4774613414720461,1.1903038800782384,0.3544113407370985,2.9592325119831719,0.2772557376313767,2.3932099387618462,3.0622469241713435,1.8442005573780644,0.9769563066257133,0.0000000000000000
1.4835786318216426,-2.5757724136596631,1.2191349697591651,0.3510336668287092,2.9859421569777638,0.2584025871638768,2.4929392709380305,3.1217299698355361,1.9355586376885452,1.0092104155544954,0.0000000000000000
1.4977989427740224,-2.6744831120818269,1.2424735267680380,0.3469493121165685,3.0107803008471654,0.2397190523259523,2.5926690018439831,3.1829645754780431,2.0356187785084119,1.0408470730290702,0.0000000000000000
1.5096553975556029,-2.7735059220477449,1.2583093331499209,0.3398052264904652,3.0337621491461602,0.2211717353701915,2.6923990996757508,3.2461189763478746,2.1452672408751026,1.0718717430392908,0.0000000000000000
1.5193248462646571,-2.8727664946192144,1.2686636100632902,0.3312700430127126,3.0548998412730652,0.2027324562493851,2.7921295338749106,3.3113721137041048,2.2654717683421581,1.1022889964764953,0.0000000000000000
1.5269854610416622,-2.9722025830296763,1.2762674935013871,0.3237318127643419,3.0742029265549617,0.1843773722895717,2.8918602748584954,3.3789139722232497,2.3972999041701875,1.1321025918004270,0.0000000000000000
1.5328163756736604,-3.0717629997371021,1.2821274305851835,0.3178752773553342,3.0916788015848051,0.1660870827694259,2.9915912938064730,3.4489462094992240,2.5419272468783931,1.1613155564170572,0.0000000000000000
1.5369973931415433,-3.1714065897873307,1.2864399040653973,0.3135990808887700,3.1073329996900720,0.1478435466430999,3.0913225624495859,3.5216827248175582,2.7006907239047093,1.1899302681117596,0.0000000000000000
1.5397087534229210,-3.2711012172544507,1.2894793771805446,0.3108594269275008,3.1211698120680555,0.1296398486107504,3.1910540530650544,3.5973513919898332,2.8749669852992885,1.2179485326625674,0.0000000000000000
1.5411289286215517,-3.3708227830739244,1.2919206220082979,0.3100089491037935,3.1332524275292482,0.1126638347882116,3.2907857310168587,3.6761919972236310,3.0482898878976270,1.2453716667844330,0.0000000000000000
1.5414163841408290,-3.4705541721711444,1.2952349619995198,0.3122423409401297,-3.1391771380324327,0.1030303285103216,3.3905175343793603,3.7579795762928891,3.1237826316396879,1.2722023102196172,0.0000000000000000
1.5406752121765701,-3.5702832936576185,1.3009367202653679,0.3189027144960159,-3.1292662302851100,0.0957215199971931,3.4902494099675820,3.8399859241149774,3.1724848792361775,1.2984545682965636,0.0000000000000000
1.5389819949374639,-3.6700008531217518,1.3072835764826305,0.3280936179275835,-3.1200832352172094,0.0884326677264035,3.5899813439210644,3.9215160336647821,3.2300636688798972,1.3241537008861046,0.0000000000000000
1.5364093793069455,-3.7696996546497283,1.3077921747535397,0.3328831136519200,-3.1116268064816337,0.0811509020550172,3.6897133316546760,4.0028201736646869,3.2967839322011767,1.3493247650924332,0.0000000000000000
1.5330299454196457,-3.8693744189025789,1.3005269519627318,0.3292947745835788,-3.1038961340406783,0.0738783405978485,3.7894453686451035,4.0841350732864434,3.3727207467399891,1.3739896813544656,0.0000000000000000
1.5289161918276009,-3.9690216223691919,1.2985441512683047,0.3243391260530329,-3.0968904504589467,0.0666120058122423,3.8891774503807848,4.1656807629989441,3.4580992204433030,1.3981676954374049,0.0000000000000000
1.5241405329085596,-4.0686393378291630,1.3161569386858458,0.3251517563774119,-3.0906091923549717,0.0593507795491472,3.9889095723454497,4.2476656372244967,3.5531719657648191,1.4218757700180535,0.0000000000000000
1.5187752989387833,-4.1682270757157998,1.3449526710419455,0.3295047435416057,-3.0850519301066894,0.0520930935944801,4.0886417300125126,4.3302880249555553,3.6582620761232021,1.4451289051117484,0.0000000000000000
1.5128927407409625,-4.2677856263148248,1.3625760431397103,0.3346311504047417,-3.0802183743049074,0.0448377004779838,4.1883739188400391,4.4137384774572315,3.7737496453009713,1.4679404070668276,0.0000000000000000
1.5065650373899491,-4.3673169026275085,1.3683826211051313,0.3386437994185958,-3.0761083541448659,0.0375834653190131,4.2881061342678048,4.4982014375278592,3.9000775506191809,1.4903221143896226,0.0000000000000000
1.4998643063730530,-4.4668237837480316,1.3830052436730216,0.3404404363544236,-3.0727218021978251,0.0303294460402130,4.3878383717163585,4.5838567924041813,4.0377519977173462,1.5122845891775210,0.0000000000000000
1.4928626154633680,-4.5663099585961602,1.4050834032649993,0.3418328572400336,-3.0700587355242481,0.0230748865070531,4.4875706265866215,4.6708812140696185,4.1873453675603240,1.5338372803072968,0.0000000000000000
1.4856319956057671,-4.6657797698608414,1.4140410567623829,0.3436696949555241,-3.0681192356142843,0.0158192469085823,4.5873028942664273,4.7594493603860428,4.3494987232144977,1.5549886634730057,0.0000000000000000
1.4782444536639230,-4.7652380579499862,1.4009056137312799,0.3410511667998938,-3.0669034146256475,0.0085624481423438,4.6870351701131456,4.8497349439939770,-0.1664886911656192,1.5757463620845846,0.0000000000000000
1.4707719849248515,-4.8646900049826556,1.3825203716759034,0.3347837216165239,-3.0664114337170991,0.0013035827572534,4.7867674495298180,4.8463099811776562,-4.5998264664733481,1.5963181065817149,0.0000000000000000
1.4632865837001445,-4.9641409782113124,1.3743054249819264,0.3300773892698921,-3.0666433065671850,-0.0059534881772123,4.8864997276930175,4.7507071145618562,-4.4295094755820141,1.6171021225250595,0.0000000000000000
1.4558602545916648,-5.0635963746448178,1.3787792202048577,0.3224352471529280,-3.0675995739505155,-0.0132232002774546,4.9862320005226950,4.6567894512537142,-4.2735810286886613,1.6383048457218083,0.0000000000000000
1.4485650397851759,-5.1630614622587698,1.3881239574289252,0.3128483122725167,-3.0692792744538213,-0.0204609949493149,5.0859642611665006,4.5643466344304597,-4.1666081580248964,1.6599360763461215,0.0000000000000000
1.4414701614517562,-5.2625410308535114,1.3905057923674560,0.3100486227853596,-3.0716009060900040,-0.0260963182220214,5.1856965120503640,4.4723785370801163,-4.1650784279727864,1.6820087296560355,0.0000000000000000
1.4346065844876181,-5.3620368474357889,1.3852173115178847,0.3150028077648641,-3.0736514464074354,-0.0150245969045523,5.2854287846912538,4.3785139378830733,-4.4271402018817483,1.7045448237105065,0.0000000000000000
1.4278819080939722,-5.4615421769887336,1.3786398238796671,0.3218760963688099,-3.0742904596223464,0.0022100335888507,5.3851610857879368,4.2764853027940761,-4.3707839264372126,1.7275909958298421,0.0000000000000000
1.4211352390718042,-5.5610460167560491,1.3721294524065637,0.3291061144477576,-3.0732087922267795,0.0194813736856720,5.4848933858282667,4.1733092237561271,-4.0678454012345950,1.7511968479548754,0.0000000000000000
1.4141952502232127,-5.6605365331881448,1.3653740442466971,0.3364296401861978,-3.0704044237172998,0.0367565540261187,5.5846256589656198,4.0749379062526900,-3.7924900194192794,1.7753795067829570,0.0000000000000000
1.4068905587280347,-5.7600008856065061,1.3578504339991093,0.3436583221050880,-3.0658759501861446,0.0540561308436306,5.6843578800370658,3.9810365526780971,-3.5419143911138558,1.8001393223905855,0.0000000000000000
1.3990497092812051,-5.8594243309016116,1.3495254491736284,0.3511044795410015,-3.0596207280246901,0.0713844613721349,5.7840900232728183,3.8912936932326794,-3.3135532961153493,1.8254767104625755,0.0000000000000000
1.3905011825518603,-5.9587893267452348,1.3406927912649729,0.3593980237000392,-3.0516353788969717,0.0887519756961478,5.8838220627999709,3.8054213630536919,-3.1051616235102211,1.8513921922747014,0.0000000000000000
1.3810734159830749,-6.0580746279256426,1.3312431321335734,0.3687613933952071,-3.0419155177994535,0.1061684856387233,5.9835539725027322,3.7231524751329506,-2.9147476256665650,1.8778864292567174,0.0000000000000000
1.3705948496541345,-6.1572543754893045,1.3208301208951378,0.3791546936814928,-3.0304557303944684,0.1236448768039147,6.0832857261176256,3.6442390932790718,-2.7405436648840120,1.9049602593060111,0.0000000000000000
1.3588940056629200,-6.2562971767852842,1.3092701747827979,0.3904916473580837,-3.0172494704581823,0.1411930194671683,6.1830172970400854,3.5684508010091038,-2.5809679080858787,1.9326147328475503,0.0000000000000000
1.3457996060513240,-6.3551651759051024,1.2965265252289788,0.4015539954021567,-3.0022889211026507,0.1588265822546400,6.2827486589637278,3.4955735194833588,-2.4346004894564426,1.9608511480689208,0.0000000000000000
1.3311407332601535,-6.4538131094945967,1.2829769802375455,0.4078876434385028,-2.9855648066230094,0.1765612155869804,6.3824797842606227,3.4254084920180761,-2.3001712370145668,1.9896710829079827,0.0000000000000000
1.3147470402813553,-6.5521873520251086,1.2695473590918926,0.4033988092808405,-2.9670662192858517,0.1944140587261346,6.4822106458980064,3.3577711682643847,-2.1765301857334154,2.0190764257212765,0.0000000000000000
1.2964490229826746,-6.6502249428098148,1.2561959230016326,0.3920432484370638,-2.9467804227425582,0.2124047116022695,6.5819412161557382,3.2924905505126132,-2.0626227062899605,2.0490694017799909,0.0000000000000000
1.2760783580895196,-6.7478525968650009,1.2394899583524914,0.3908610638414402,-2.9246925614777375,0.2305561455253753,6.6816714664537713,3.2294089656897658,-1.9574765759602155,2.0796525930880669,0.0000000000000000
1.2534683112380243,-6.8449856959041302,1.2157832946685314,0.4047137601228556,-2.9007853173814904,0.2488948531975566,6.7814013674242029,3.1683819810011133,-1.8602036261953641,2.1108289481148015,0.0000000000000000
1.2284542279156025,-6.9415272569718383,1.1887262603679334,0.4257430392785007,-2.8750386109605373,0.2674498063188681,6.8811308885192677,3.1092780422427655,-1.7699573868703815,2.1426017808982918,0.0000000000000000
1.2008741240470142,-7.0373668786614489,1.1655829188472528,0.4564759084714146,-2.8474292144396527,0.2862552666408709,6.9808599976850969,3.0519792589506372,-1.6859254582757619,2.1749747542349227,0.0000000000000000
1.1705693766844927,-7.1323796597260740,1.1473538334175712,0.4975819161691738,-2.8179302253036416,0.3053507772261453,7.0805886609587043,2.9963823541729964,-1.6073242810517518,2.2079518378329728,0.0000000000000000
1.1373855303863198,-7.2264250872632259,1.1289020368020393,0.5442748097640537,-2.7865105570354909,0.3247808287405881,7.1803168420099324,2.9423997278720955,-1.5333706472704260,2.2415372362104411,0.0000000000000000
1.1011732409310273,-7.3193458932376636,1.1028125563800448,0.5896620481602739,-2.7531343567192939,0.3445966636960537,7.2800445016161470,2.8899614576425563,-1.4632605951927176,2.2757352758839442,0.0000000000000000
1.0617893698708485,-7.4109668748115851,1.0668518295190328,0.6317233999954230,-2.7177602791402879,0.3648573556330408,7.3797715970529119,2.8390180993801724,-1.3961531507049241,2.3105502353175198,0.0000000000000000
1.0190982459721181,-7.5010936845106695,1.0246211857964476,0.6721333944150132,-2.6803406923443340,0.3856300269048434,7.4794980924604602,2.7895442005933853,-1.3311416237328717,2.3459861033394538,0.0000000000000000
0.9729731509143890,-7.5895115352950899,0.9781807376016332,0.7055754598534832,-2.6408208223910554,0.4069912219211965,7.5792239202656013,2.7415430776040908,-1.2672125138709536,2.3820462205602544,0.0000000000000000
0.9232980096723757,-7.6759839307754465,0.9281241164237929,0.7262455733043418,-2.5991377162954525,0.4290286492426615,7.6789490165930809,2.6950533698486514,-1.2032033281102330,2.4187328119934683,0.0000000000000000
0.8699693678432810,-7.7602513144734386,0.8755416612494857,0.7504987650909642,-2.5552190750703874,0.4518423322726098,7.7786733165136139,2.6501576268623861,-1.1377466021751825,2.4560463249612052,0.0000000000000000
0.8128986942164059,-7.8420296784560550,0.8227413750869678,0.8021447354017744,-2.5089819744249162,0.4755457488773127,7.8783967470798482,2.6069935670516915,-1.0691718641545189,2.4939845264273068,0.0000000000000000
0.7520150647147025,-7.9210091464983643,0.7703329144571567,0.8778084458663673,-2.4603313368859125,0.5002696632951581,7.9781192255566031,2.5657697718670511,-0.9954302224710962,2.5325412791503497,0.0000000000000000
0.6872682989969890,-7.9968525396550891,0.7146361269122565,0.9630512710621207,-2.4091583363357540,0.5261596530311957,8.0778406573374895,2.5267851250514224,-0.9138516571200349,2.5717048949775361,0.0000000000000000
0.6186326457827684,-8.0691939559439483,0.6554643442553340,1.0457314425979967,-2.3553382742677811,0.5533892679774118,8.1775609331234129,2.4904585902259577,-0.8211367520344237,2.6114559142402753,0.0000000000000000
0.5461111098940402,-8.1376373953330727,0.5934165468939068,1.1231247504550466,-2.2987290655970023,0.5821345321954750,8.2772799261140815,2.4573599918589997,-0.7125633025240190,2.6517641799279987,0.0000000000000000
0.4697405962858797,-8.2017555401117441,0.5213394810523919,1.2042809625517592,-2.2391677560271752,0.6126393969046217,8.3769974864464167,2.4282726332455278,-0.5823874002897366,2.6925849161495239,0.0000000000000000
0.3895979002470804,-8.2610886661922613,0.4525478106292192,1.2914210104615975,-2.1764695240274552,0.6450992859244102,8.4767134409314142,2.4042382058293050,-0.4219784322587682,2.7338537131809599,0.0000000000000000
0.3058070141352170,-8.3151441400951214,0.3984891424954391,1.3541090454551983,-2.1104244593383301,0.6798265175366381,8.5764275665820655,2.3866727738709979,-0.2182632928417183,2.7754800869846705,0.0000000000000000
0.2185473020125149,-8.3633959494502115,0.3418817803863174,1.3546149609255389,-2.0407824467800530,0.7173071211558865,8.6761396243573259,2.3775365329275133,0.0000000000000000,2.8173388934955321,0.0000000000000000
0.1280671465963184,-8.4052935450602710,0.3103841557623088,1.2994698498946278,-1.9675555710314185,0.7518557615167433,8.7758495388194451,2.3775365329275133,0.0000000000000000,2.8592772246551985,0.0000000000000000
0.0347322887005077,-8.4403734900287226,0.3235669934660622,1.2343234511380317,-1.8933002513989265,0.7379645835980381,8.8755591082569900,2.3775365329275133,0.0877603105424713,2.9012154106963490,0.0000000000000000
-0.0609247852925095,-8.4685152522106453,0.3624229082820464,1.1917445833162370,-1.8209387392263539,0.7137752980398612,8.9752698628605412,2.3812142404625929,0.2266193503925767,2.9431216837296490,0.0000000000000000
-0.1583433169167084,-8.4897783199799761,0.4088903756219044,1.1689323865323007,-1.7507756846233056,0.6938222846212285,9.0749818899925678,2.3906849664085432,0.3180217000087701,2.9849130220665741,0.0000000000000000
-0.2570003192176576,-8.5042521309405892,0.4408835386725519,1.1539826550466341,-1.6824307272217975,0.6772735909043097,9.1746949548674035,2.4039127366485200,0.3757236368111032,3.0265069454988809,0.0000000000000000
-0.3564102837053214,-8.5120315228859695,0.4551089718563194,1.1443611974687136,-1.6155779711950213,0.6638644789122299,9.2744088454668496,2.4194474940891348,0.4067331363983003,3.0678531795885529,0.0000000000000000
