# x_m,y_m,w_tr_right_m,w_tr_left_m,psi,kappa,s,velocity,acceleration,time,n
-0.1433997928497491,-1.0324388570839800,0.0873341572753051,1.3126658427246951,1.7535341870721288,3.0469333328378294,0.0000000000000000,1.0900484969414936,0.7036888820426329,0.0000000000000000,0.0000000000000000
-0.0909400463282484,-1.0463448648143514,0.0873341572753051,1.3126658427246951,1.9000188106830378,2.3557763150276010,0.0542715584454442,1.1245382653617357,1.4204372304424182,0.0490128085015738,0.0000000000000000
-0.0369592661513642,-1.0687142535658176,0.0277682258352355,1.3704004479181369,2.0220844839848540,1.8237485450041897,0.1127036915711423,1.1960705100263112,1.8340289809935919,0.0993721226138176,0.0000000000000000
0.0181596807884903,-1.0991499851869133,-0.0120147697226379,1.4700479621483600,2.1243592858920515,1.4259471912886590,0.1756674277299017,1.2890070979976014,2.1019953748574656,0.1500455792136918,0.0000000000000000
0.0740339275989019,-1.1372550215261727,-0.0391202007703105,1.5939681546471771,2.2110378956283694,1.1378894183428381,0.2432982287827288,1.3949403430649261,2.2753373264321786,0.2004420959398563,0.0000000000000000
0.1302806073874578,-1.1826323244321308,-0.0618322660917664,1.6284525832699632,2.2857375503389523,0.9297425232391420,0.3155670921075066,1.5082210200210970,2.3862728008243081,0.2502284180118454,0.0000000000000000
0.1865168532617448,-1.2348848557533216,-0.0295782528013724,1.5870124204679601,2.3513138686382948,0.7789970819380165,0.3923319433058596,1.6251444237917407,2.4505475437166626,0.2992267570660616,0.0000000000000000
0.2423597983293499,-1.2936155773382798,-0.0152783605865076,1.5379444374703324,2.4099896643935002,0.6692181245787897,0.4733734892666410,1.7430681917147637,2.4775144537979257,0.3473481527212432,0.0000000000000000
0.2974265756978599,-1.3584274510355401,-0.0090189385611662,1.4821327253983128,2.4634874504314448,0.5889931467623326,0.5584201173121000,1.8600255969815518,2.4725294864219842,0.3945557099112718,0.0000000000000000
0.3513343184748621,-1.4289234386936374,0.0118095044871206,1.3878699487015649,2.5131551994669525,0.5304423502921644,0.6471654214537954,1.9744735966758928,2.4387574120749513,0.4408435298636071,0.0000000000000000
0.4037001597679432,-1.5047065021611059,0.0518083232084436,1.3197874181932143,2.5600646018038025,0.4881350661181897,0.7392808601318288,2.0851475731121325,2.3779803601920877,0.4862248276869424,0.0000000000000000
0.4541412326846902,-1.5853796032864806,0.1085215233543425,1.2879841438733903,2.6050855856486077,0.4583117447947094,0.8344252298137891,2.1909685727158501,2.2911164447730870,0.5307251950470706,0.0000000000000000
0.5022746703326898,-1.6705457039182949,0.1704205650249939,1.2508585553686906,2.6489414719292834,0.4383586694287027,0.9322520794852478,2.2909842196474810,2.1785476852215746,0.5743788675436410,0.0000000000000000
0.5477176058195291,-1.7598077659050846,0.2262324056746713,1.2643196537755095,2.6922496110342369,0.4264528426747681,1.0324158258997791,2.3843304490910593,2.0403787896008385,0.6172267841060385,0.0000000000000000
0.5900871722527954,-1.8527687510953836,0.2770404273716940,1.2229595726283060,2.7355514466437576,0.4213262946118134,1.1345770951131848,2.4702078989644254,1.8766385836284107,0.6593157581294189,0.0000000000000000
0.6290005027400754,-1.9490316213377266,0.3214532252300810,1.1785467747699190,2.7793341546734833,0.4220879013649484,1.2384076661262848,2.5478681236580805,1.6876031162999907,0.7006983798932227,0.0000000000000000
0.6640747303889556,-2.0481993384806478,0.3600883247977365,1.1399116752022633,2.8240481236929855,0.4281562712438743,1.3435952964280646,2.6166126807267327,1.4736833216350504,0.7414334060404677,0.0000000000000000
0.6949269883070239,-2.1498748643726833,0.3928785661248729,1.1071214338751270,2.8701124246950633,0.4389831794124266,1.4498486464179119,2.6757857725228522,1.2371853150064089,0.7815865996930002,0.0000000000000000
0.7211744096018664,-2.2536611608623658,0.4202242099474772,1.0800489045577124,2.9179431244657010,0.4546824739999631,1.5569024761657226,2.7248340045944253,0.9769462261863572,0.8212316160673814,0.0000000000000000
0.7424341273810704,-2.3591611897982308,0.4435543967261902,1.0606524658186847,2.9678755166878279,0.4733420894302034,1.6645232534604428,2.7631503355895659,0.7108606942199839,0.8604521278704861,0.0000000000000000
0.7583232747522228,-2.4659779130288122,0.4686245262531477,1.0539767166258058,3.0204655732226238,0.5007265876406815,1.7725152780080955,2.7907945729037569,0.3912589229089670,0.8993405310962750,0.0000000000000000
0.7684610719049728,-2.5737150816571663,0.4963617397342048,1.0616512186726146,3.0752951476060133,0.5127997907683414,1.8807283661035967,2.8059246284843185,0.2376318938564139,0.9380107177544380,0.0000000000000000
0.7727420728765800,-2.6820805675047485,0.5158125678785734,1.0722392992368401,3.1279297952118670,0.4580029692637267,1.9891783798993610,2.8150942053631072,0.6934312680026238,0.9765980333288757,0.0000000000000000
0.7716082932413703,-2.7909892713835767,0.5204748670720425,1.0783590997259362,-3.1079772980700300,0.4102365564215298,2.0980929851496555,2.8417960818317662,1.0472459994801673,1.0151049159872996,0.0000000000000000
0.7655664611016462,-2.9003805659058535,0.5155594155433438,1.0844292716267157,-3.0657687140742720,0.3603446783950887,2.2076510019848654,2.8818871179138310,1.4051494057246929,1.0533872642626476,0.0000000000000000
0.7551233045597097,-3.0101938236837786,0.5056735088949630,1.0943264911050370,-3.0286722675580582,0.3122832369815017,2.3179597101740219,2.9351786643940758,1.7430761084002213,1.0913131575969299,0.0000000000000000
0.7407855517178630,-3.1203684173295541,0.4918440954661844,1.1081559045338158,-2.9965528277577382,0.2659281673635785,2.4290633205634489,3.0004329503536358,2.0743033642708233,1.1287494380009164,0.0000000000000000
0.7230599306784086,-3.2308437194553812,0.4743748490797174,1.1256251509202828,-2.9692709996696225,0.2217467530772810,2.5409516131638239,3.0768130286214626,2.4038046982993388,1.1655714764661900,0.0000000000000000
0.7024531695436482,-3.3415591026734615,0.4538811393822391,1.1463569728067449,-2.9466677925867701,0.1796784583514154,2.6535683733977757,3.1635732657566229,2.7401831365351952,1.2016643575544674,0.0000000000000000
0.6794719964158850,-3.4524539395959963,0.4329906276391566,1.1723096774441419,-2.9285922805895472,0.1395361937730525,2.7668194183130606,3.2601921745126821,3.0924068127536852,1.2369243762984075,0.0000000000000000
0.6546231393974202,-3.5634676028351850,0.4187390277523256,1.2089395308909396,-2.9149114462374293,0.1009844419159655,2.8805801282304486,3.3663692316051996,3.4709643582142928,1.2712591399700637,0.0000000000000000
0.6284133265905564,-3.6745394650032321,0.4015366767799121,1.2453808416895209,-2.9055196399228573,0.0636075708833069,2.9947024873580470,3.4820498396077895,3.8880472567845867,1.3045872286693392,0.0000000000000000
0.6013492860975961,-3.7856088987123369,0.3638759917489470,1.2637500311621823,-2.9003442082988409,0.0269358071606639,3.1090216956839702,3.6074406515106268,4.3582282977160167,1.3368375599079918,0.0000000000000000
0.5739377460208410,-3.8966152765746997,0.3335867475059715,1.2809152248787947,-2.8993492376335919,-0.0095322468536351,3.2233624515652450,3.7430300947092898,1.9368563433462851,1.3679486981817073,0.0000000000000000
0.5466854344625938,-4.0074979712025236,0.3469689624926233,1.3059585046624049,-2.9025375147053878,-0.0463128749388911,3.3375450266509166,3.8016555314241751,-3.4525580425956113,1.3982170435426229,0.0000000000000000
0.5200990795251565,-4.1181963552080090,0.3635283974850145,1.3327852553932171,-2.9099514679465055,-0.0839320836845293,3.4513912672137268,3.6968179929040619,-2.9474521151076827,1.4285822212533783,0.0000000000000000
0.4946854093108314,-4.2286498012033586,0.3430849749524284,1.3579487386838718,-2.9216716004922763,-0.1228832520410936,3.5647306618036492,3.6053208450900782,-2.4553314680315355,1.4596250149072596,0.0000000000000000
0.4709511519219204,-4.3387976818007710,0.3371465257051091,1.3761926628729575,-2.9378177873779103,-0.1637140126947526,3.6774066156443195,3.5277506666047280,-1.9617024793290316,1.4912175634064400,0.0000000000000000
0.4494030354607265,-4.4485793696124496,0.3559064558459168,1.3903029071409236,-2.9585320984448762,-0.2065977888591268,3.7892830667044333,3.4649802514421038,-1.4351375520621972,1.5232154916468597,0.0000000000000000
0.4305477880295510,-4.5579342372505938,0.3612780497980950,1.4066645804580225,-2.9840201219829421,-0.2527876005665636,3.9002515641793782,3.4187099946089838,-0.9032665537442339,1.5554564826003976,0.0000000000000000
0.4148921377306968,-4.6668016573274054,0.3361103921279958,1.4095822759779815,-3.0143599714270728,-0.2989252712021416,4.0102389022709106,3.3895253737909203,-0.1649215955429268,1.5877665694702003,0.0000000000000000
0.4029428126664658,-4.7751210024550899,0.3096319764204247,1.4055908386046334,-3.0501571773762564,-0.3580822006379493,4.1192153533894027,3.3842188344110289,0.0000000000000000,1.6199427036048608,0.0000000000000000
0.3951883002170554,-4.8828338816604955,0.2978654089894137,1.4044611718682691,-3.0895253262770344,-0.3710838500005157,4.2272070049650976,3.3842188344110289,0.0000000000000000,1.6518530666338787,0.0000000000000000
0.3916575786280741,-4.9899382423630039,0.3067962557759813,1.3940248076842932,-3.1269851484144162,-0.3280845174088478,4.3343695454185225,3.3842188344110289,0.5504061408496743,1.6835184363090860,0.0000000000000000
0.3918967478623893,-5.0964912355629153,0.3337817088000152,1.3677675503697568,3.1231226629576030,-0.2928024750447014,4.4409228070381603,3.4015044110258574,0.9636435177073608,1.7149235666881628,0.0000000000000000
0.3954289897254756,-5.2025528221549378,0.3448616310670482,1.3555091144917037,3.0941943241008119,-0.2524151306392478,4.5470431956682269,3.4314365369955868,1.4282112765608024,1.7459849762444082,0.0000000000000000
0.4017774860228071,-5.3081829630337793,0.3514270880131965,1.3485862110776274,3.0696576423529613,-0.2113354239598984,4.6528639406444423,3.4752015006279069,1.8974257259101592,1.7766281761340688,0.0000000000000000
0.4104654185598581,-5.4134416190941481,0.3600414893482315,1.3400462135647246,3.0495662467259468,-0.1691290724341106,4.7584805342621284,3.5323964604207223,2.3913590820682051,1.8067716273436703,0.0000000000000000
0.4210159691421029,-5.5183887512307521,0.3710792947149205,1.3298718500224194,3.0339787830079645,-0.1264368246097072,4.8639566673979537,3.6030941385737383,2.9154503154789104,1.8363354342529496,0.0000000000000000
0.4329523195750157,-5.6230843203382959,0.3838970343835282,1.3187591147590783,3.0229222172499601,-0.0834177736104255,4.9693304717916922,3.6873719033954662,1.9844458590284366,1.8652427232485036,0.0000000000000000
0.4457976516640707,-5.7275882873114901,0.3964547882980975,1.3054169814655647,3.0164140283888203,-0.0402055828922070,5.0746209351281815,3.7436076185782166,-4.1116806759847080,1.8935809693774672,0.0000000000000000
0.4590751472147423,-5.8319606130450437,0.4090807427106703,1.2909400718557351,3.0144655359687800,0.0031668522319691,5.1798344051171954,3.6262087114592032,-4.1058016676274720,1.9221335045499359,0.0000000000000000
0.4723079880325048,-5.9362612584336620,0.4223442231419146,1.2776557768580856,3.0170868437492482,0.0466977428058781,5.2849711384913620,3.5051459981903035,-3.5826144391482866,1.9516192720246359,0.0000000000000000
0.4850193559228323,-6.0405501843720533,0.4349931862961526,1.2650068137038477,3.0242878018408410,0.0903839298896224,5.3900318778140344,3.3960659924771042,-3.1172083563422737,1.9820663121864937,0.0000000000000000
0.4967324326911994,-6.1448873517549281,0.4466367487033256,1.2533632512966746,3.0360764277730605,0.1341777986096916,5.4950244521460494,3.2982869440265823,-2.6989923995489264,2.0134338171053034,0.0000000000000000
0.5069704001430800,-6.2493327214769909,0.4566810445852814,1.2433189554147188,3.0524542956781593,0.1779447870496631,5.5999703964884784,3.2112614581887926,-2.3198793260408590,2.0456775114011205,0.0000000000000000
0.5152564400839487,-6.3539462544329499,0.4647485746372103,1.2339673888556026,3.0734092292048016,0.2214266694751553,5.7049115692255370,3.1345332090572020,-1.9744672055951480,2.0787517529232158,0.0000000000000000
0.5211137343192792,-6.4587879115175131,0.4718047429923189,1.2118727588150831,3.0989045306444649,0.2641860989654014,5.8099167165088792,3.0676766451539748,-1.6593786077492725,2.1126123122243641,0.0000000000000000
0.5240654646545465,-6.5639176536253929,0.4807659947680979,1.1658857953353776,3.1288683024967163,0.3056436347116770,5.9150878883557381,3.0102495600521140,-1.3761091436834370,2.1472198965536289,0.0000000000000000
0.5236348128952245,-6.6693954416512895,0.4859551122124458,1.1437121363210339,-3.1200138061164706,0.3448158453279370,6.0205665555248569,2.9616384143044896,-1.1213343430800222,2.1825449621349144,0.0000000000000000
0.5193449608467874,-6.7752812364899153,0.4767505072797103,1.1413727192140704,-3.0815439401009264,0.3812637714507235,6.1265392141647395,2.9212395543609944,-0.9233620340754845,2.2185724504507807,0.0000000000000000
0.5107190903147093,-6.8816349990359784,0.4638479443250375,1.1456353147466101,-3.0392443589971245,0.4116381787449576,6.2332422059228927,2.8873152842978067,-0.7076223778759216,2.2553123951433891,0.0000000000000000
0.4972803831044651,-6.9885166901841842,0.4585653445818976,1.1670034559435967,-2.9932238519678824,0.4428713718054904,6.3409654381162461,2.8607926893617166,-0.6764249432207454,2.2927936786150953,0.0000000000000000
0.4785998559653787,-7.0959462221617686,0.4591159434016236,1.2044960088519745,-2.9459788072496620,0.4237795785237244,6.4500070193369758,2.8348929293244178,-0.9108765484937783,2.3310828639812931,0.0000000000000000
0.4547084995729639,-7.2035584049812620,0.4497849321423515,1.2432480641192385,-2.9007659156245609,0.3966046965104646,6.5602394047844728,2.7992502087445263,-1.2526928062523137,2.3702129970809214,0.0000000000000000
0.4258940037515688,-7.3107731334065278,0.4232643492040088,1.2764910729117773,-2.8576068776577266,0.3809572133919694,6.6712586515876495,2.7491190784512218,-1.5076415630370985,2.4102316912436841,0.0000000000000000
0.3924468501191154,-7.4170079648387528,0.3879843445369647,1.3120156554630358,-2.8157271362695098,0.3711400237013349,6.7826343737875359,2.6873455996021152,-1.7274583489934083,2.4512052756576517,0.0000000000000000
0.3546575202935268,-7.5216804566791202,0.3465040390613489,1.3284479999000323,-2.7745868852279321,0.3682765963959008,6.8939194311705414,2.6148318815388274,-1.9036491586280748,2.4931823908254596,0.0000000000000000
0.3128164958927244,-7.6242081663288186,0.3003534855820016,1.3098751789049154,-2.7335983090066227,0.3720622522204965,7.0046560672442517,2.5329307847886091,-2.0430873904562694,2.5362056004221496,0.0000000000000000
0.2672142585346318,-7.7240086511890276,0.2576663873134285,1.3708903688420713,-2.6921763599844990,0.3829989136842696,7.1143816377845619,2.4428222410496394,-2.1483357936461163,2.5803097068641390,0.0000000000000000
0.2181412898371707,-7.8204994686609322,0.2177333329111351,1.4575769683208419,-2.6496979721475440,0.4018575832536299,7.2226342779979920,2.3456884827087268,-2.2224677240318109,2.6255231965933490,0.0000000000000000
0.1658880714182636,-7.9130981761457182,0.1730229731821797,1.5354222048448314,-2.6054821124795149,0.4299199960776511,7.3289588728149342,2.2426877842021478,-2.2677916689376576,2.6718683908982293,0.0000000000000000
0.1107450848958331,-8.0012223310445734,0.1305281501034049,1.5939482199254802,-2.5587592962125298,0.4690604801878224,7.4329137459053785,2.1349830226794726,-2.2861824147990002,2.7193616253949981,0.0000000000000000
0.0530028118878014,-8.0842894907586746,0.0686958977357557,1.6731200373250654,-2.5086373634763977,0.5219287511378897,7.5340785773197689,2.0237564057905306,-2.2469945873725563,2.7680133061047028,0.0000000000000000
-0.0070482659879095,-8.1617172126892168,0.0568564724623884,1.7039669286410302,-2.4540605928676658,0.5921669790047622,7.6320642093144038,1.9118691431459838,-2.1761233560927664,2.8178074904224220,0.0000000000000000
-0.0691176671133762,-8.2329230542373750,0.0272016992382341,1.6129527405362616,-2.3937633186108016,0.6846569656866118,7.7265252194013998,1.8011457464438869,-2.0708370708309478,2.8686885199339569,0.0000000000000000
-0.1329149098706768,-8.2973245728043405,0.0934718659474441,1.4518468615476570,-2.3262220224012280,0.8057126608909283,7.8171764398960253,1.6937172680527959,-1.9259171955010495,2.9205653575202111,0.0000000000000000
-0.1981495126418890,-8.3543393257912939,0.2131135514280121,1.3401254782465255,-2.2496184943659845,0.9629845851358806,7.9038149732220297,1.5921560544899931,-1.7336762266699175,2.9732993036109621,0.0000000000000000
-0.2645309938090902,-8.4033848705994227,0.3316688681076216,1.2642782894598763,-2.1618421863771964,1.1645775154944382,7.9863496114503372,1.4995946857410181,-1.4840652284957745,3.0266895314545823,0.0000000000000000
-0.3317688717543580,-8.4438787646299094,0.3921038335378261,1.2078961664621741,-2.0605931703465812,1.4162352196953585,8.0648396597643437,1.4197941817500039,-1.1661602748303470,3.0804610924741063,0.0000000000000000
-0.3995726648597702,-8.4752385652839397,0.4250782020550575,1.1749217979449427,-1.9436787315901363,1.7152997326549919,8.1395443547743760,1.3570483496188073,-0.7780572163587927,3.1342665885842571,0.0000000000000000
-0.4676518915074049,-8.4968818299626996,0.4435348527314371,1.1564651472685630,-1.8096558078507590,2.0395614282453254,8.2109811240664907,1.3154529392878149,-0.3511340066746005,3.1877271946379526,0.0000000000000000
-0.5357160700793383,-8.5082261160673696,0.4517518819978545,1.1482481180021455,-1.6588090899915517,2.3366014270128512,8.2799842053882458,1.2969031492930188,0.0000000000000000,3.2405554301326323,0.0000000000000000
-0.6034747189576489,-8.5086889809991391,0.4468478240235367,1.1531521759764634,-1.4942856376996794,2.5268172922990564,8.3477444351824204,1.2969031492930188,0.0000000000000000,3.2928031479603761,0.0000000000000000
-0.6706560438806642,-8.4978793398077954,0.4379749078988351,1.1620250921011650,-1.3310831969952774,2.2771771827297682,8.4157898520824386,1.2969031492930188,0.4692822564053348,3.3452707643256478,0.0000000000000000
-0.7370682608341965,-8.4762254087122795,0.4123848907618330,1.1876151092381670,-1.1841704629179275,1.9326078663168003,8.4856430931852849,1.3219378018084245,0.9754040813817673,3.3986174489140857,0.0000000000000000
-0.8025409948328669,-8.4443746313790111,0.3800917261924140,1.2210638030157899,-1.0560815857707060,1.5880174210105156,8.5584520961587778,1.3746111992754364,1.3963348505900814,3.4526190657541487,0.0000000000000000
-0.8669038711243380,-8.4029744538608142,0.3359778449845252,1.2700291444216132,-0.9461775900932490,1.2853743031364913,8.6349802252555321,1.4502667811785397,1.7284478672930874,3.5068006124448523,0.0000000000000000
-0.9299865149562787,-8.3526723222105090,0.3111861288024580,1.3222694773599184,-0.8524221371357368,1.0393276569567489,8.7156630883764716,1.5434331802727759,1.9828491925655725,3.5607023822680541,0.0000000000000000
-0.9916185515763518,-8.2941156824809159,0.2194776744711918,1.3957837340048571,-0.7722738372413063,0.8465880290425656,8.8006771342416066,1.6490379153821082,2.1770100776203849,3.6139614679843470,0.0000000000000000
-1.0516296062322257,-8.2279519807248569,0.1792464021937509,1.5009992109142385,-0.7032826761116189,0.6983720219445052,8.8900021705470849,1.7630227039971536,2.3239076844015965,3.6663198790853366,0.0000000000000000
-1.1098493041715649,-8.1548286629951523,0.1673987314817063,1.5608512060189754,-0.6433027191997329,0.5851939750450643,8.9834716993997930,1.8822003526526725,2.4329456197625667,3.7176031763761270,0.0000000000000000
-1.1661072706420339,-8.0753931753446206,0.0958589696538955,1.5259756372644671,-0.5905430353760517,0.4989456327071713,9.0808110824349768,2.0040761010244910,2.5103181879556562,3.7676970820441511,0.0000000000000000
-1.2202331308913015,-7.9902929638260858,0.0367080180304349,1.4255174861666096,-0.5435377536389945,0.4332668450888757,9.1816657042835690,2.1266582710509345,2.5599423087340214,3.8165284097278627,0.0000000000000000
