# x_m,y_m,w_tr_right_m,w_tr_left_m,psi,kappa,s,velocity,acceleration,time,n
-0.0725269822488324,-0.8101527581499698,0.3387007304429908,1.0612992695570094,-0.0148322575584436,-0.6502062122542778,0.0201461272974098,2.6743160496095637,0.0000000000000000,0.0000000000000000,0.3513556218128078
0.0275941385568411,-0.8116378893099679,0.3309100759880707,1.0695176579294268,-0.0799387937372098,-0.9121336130543696,0.2016527602085749,2.6743160496095637,0.0000000000000000,0.0374421471037993,0.3355510682562176
0.1270561811840858,-0.8261412666487630,0.3153892246808842,1.0925514648370120,-0.1978482584429555,-1.0423768434673693,0.3568087421827943,2.6743160496095637,0.0032382783689635,0.0750270499398271,0.3127351099436324
0.2239548612016393,-0.8510024901280013,0.3132890001610199,1.1297805803097127,-0.2889885903340423,-0.8259070965172193,0.4890421211442320,2.6744371799655569,0.0148873296066894,0.1124328385076327,0.2852205617252032
0.3181238487017380,-0.8829479087354477,0.3215983340854582,1.1837358543367091,-0.3625978422515963,-0.7253390251799336,0.6130350834758447,2.6749906580869474,0.0337826545433012,0.1496106357360765,0.2537660770765238
0.4094244371878395,-0.9213643917079378,0.3384682171772908,1.2125669888277222,-0.4329637532577673,-0.7038641134908084,0.7224747859929388,2.6762413214550729,0.0588860201684718,0.1866315088744638,0.2202688827688914
0.4976473288861227,-0.9659260032526876,0.3721430647901567,1.1864392506499533,-0.5018868996729156,-0.6917725707201599,0.8342961109764053,2.6784152035614599,0.0892543792910107,0.2235482864078679,0.1856593195360478
0.5825289837736533,-1.0163563873852302,0.4161208957207726,1.1249024184649943,-0.5696378790310002,-0.6792729532959388,0.9365155700448154,2.6817033075840344,0.1240957316613201,0.2603879804228111,0.1512231479416497
0.6638022698947177,-1.0723412271176005,0.4574448350152262,1.0485409761826574,-0.6359904772015748,-0.6639550868507768,1.0366668986524108,2.6862662863996025,0.1627714947617946,0.2971578092838174,0.1174955951243787
0.7412235890609543,-1.1335253998473265,0.4951448750437789,0.9630216671424470,-0.7006818685374090,-0.6459297911031900,1.1351292009780789,2.6922390029142345,0.2045682750104990,0.3338516820246964,0.0848625165912718
0.8145887523357552,-1.1995227899742205,0.5378851159247537,0.8733617545112499,-0.7634717749132758,-0.6255626690493142,1.2322088445221406,2.6997268733061475,0.2520163786680086,0.3704549646770466,0.0536003036846865
0.8837423693320743,-1.2699274728654666,0.5889630717040103,0.7971254368971368,-0.8241481783847577,-0.6032121544394937,1.3281480295269599,2.7089234876881321,0.3081747911601303,0.4069470943973125,0.0238916370575117
0.9485821563029281,-1.3443249362377567,0.6466397832178578,0.7439078268997169,-0.8825300933898377,-0.5792211527587505,1.4231347981578579,2.7201272635681053,0.3714322926492197,0.4433023583622734,0.0041599276705550
1.0090594217664699,-1.4223024336808934,0.7070344313202329,0.7045324393176789,-0.9384682115451199,-0.5539118064140586,1.5173132699543044,2.7335689379066386,0.4387524531437869,0.4794911190181154,0.0305168910960595
1.0651767815866433,-1.5034579567561563,0.7655522662637447,0.6740472595677776,-0.9918441825476263,-0.5275827716233136,1.6119195966277029,2.7493600718568119,0.5075910416278084,0.5154821062753382,0.0553384566780778
1.1169839971945532,-1.5874075676136983,0.8192878591037662,0.6515675915371817,-1.0425690001071541,-0.5005083867189967,1.7052049322985006,2.7675127795907914,0.5779523540883735,0.5512445729961163,0.0786708671942564
1.1645726482144119,-1.6737910351219407,0.8679060252836377,0.6250095380435001,-1.0905809465344878,-0.4729395882401953,1.7978880312900616,2.7880329010454807,0.6500336325584127,0.5867494399795832,0.1004964265228092
1.2080701948634744,-1.7622758441344442,0.9119066365150310,0.5878775311315206,-1.1358433845370217,-0.4451060085381326,1.8900303331886295,2.8109271963240734,0.7240184226627729,0.6219696103398227,0.1209356491299961
1.2476338432843475,-1.8525597256836857,0.9514686066222136,0.5485315219459358,-1.1783426218234925,-0.4172191122988223,1.9842381313421971,2.8362030525311868,0.7999994373664505,0.6568801256194678,0.1403748355391340
1.2834445061032702,-1.9443718959005065,0.9868099621470087,0.5131936620771331,-1.2180860228533903,-0.3894760744641452,2.0756986693621862,2.8638655386120271,0.8782714428091871,0.6914582575390397,0.1587969017726881
1.3157010475028592,-2.0374732065848029,1.0183274564840024,0.4817218099137262,-1.2551004743368730,-0.3620640354899692,2.1667351753708606,2.8939245976649466,0.9575303984176681,0.7256835068045451,0.1762963586215975
1.3446149251141253,-2.1316554051637655,1.0465412248083559,0.4538571054496773,-1.2894312666546339,-0.3351646298089869,2.2606373683714187,2.9263411319753105,1.0407187453168798,0.7595378203218315,0.1932355416397801
1.3704052761814740,-2.2267396877676999,1.0723691385013672,0.4297786905010026,-1.3211414508668593,-0.3089586782228392,2.3511396071112336,2.9611712805738524,1.1260805421849271,0.7930052184591992,0.2097125549996487
1.3932944464255390,-2.3225747097352856,1.0976189497372666,0.4106056037740902,-1.3503116953194487,-0.2836308643424358,2.4413688296291238,2.9984065735920238,1.2143364037283362,0.8260714971340123,0.2257586191288569
1.4135039254945618,-2.4190341956059562,1.1248203621074102,0.3982931080372884,-1.3770406557367467,-0.2593744535586867,2.5350264580764299,3.0380580908759689,1.3052924213151909,0.8587243247707400,0.2417146704173889
1.4312506253356490,-2.5160142691343390,1.1549755342087971,0.3934536330694142,-1.4014458868423887,-0.2363960343442889,2.6249806681695236,3.0801259292618477,1.3985160366887250,0.8909529945300361,0.2576354894921273
1.4467434171078217,-2.6134306058472858,1.1844477165506413,0.3921772889058776,-1.4236652991677765,-0.2149202263299589,2.7148767676347276,3.1245922422448680,1.4937406989494837,0.9227483489031639,0.2735283613587209
1.4601798328181950,-2.7112154944979396,1.2068424793214416,0.3877839030125378,-1.4438591713046445,-0.1951946545359036,2.8085137832822000,3.1714274653466825,1.5907800703759714,0.9541026683876319,0.2896730700107399
1.4717428265095296,-2.8093148816149554,1.2209538983914809,0.3786008629037809,-1.4622127707882711,-0.1774954594615554,2.8984983377524585,3.2205934103189224,1.6894963500761719,0.9850094831559486,0.3060417195578197
1.4815974814289194,-2.9076854667873109,1.2312996877680991,0.3686930632096380,-1.4789396347659056,-0.1621335531101621,2.9886952635171080,3.2720451033737867,1.7894802425266607,1.0154633477366830,0.3226082698467062
1.4898875467872292,-3.0062919140343598,1.2400175456320677,0.3599824321039217,-1.4942855897263572,-0.1494623036745104,3.0826568797877973,3.3257228905473397,1.8897408176690091,1.0454596482813387,0.3395254937778920
1.4967316806630999,-3.1051042468764045,1.2473724693530643,0.3526282047368455,-1.5085336777194613,-0.1391091728601833,3.1734066991120673,3.3815361753613966,1.9789411603500149,1.0749945370302112,0.3567085879368941
1.5022192614477143,-3.2040955013825942,1.2533853864223459,0.3466291508668317,-1.5218559587372873,-0.1295319473138637,3.2647035216169473,3.4390673418194826,2.0609191515417589,1.1040662283016740,0.3740439811321397
1.5064362081938651,-3.3032388076487864,1.2581688339586805,0.3420034771756072,-1.5342297315358477,-0.1200725900286240,3.3594494872363572,3.4980289227530408,2.1370202167641379,1.1326755897554941,0.3915149029909935
1.5094776577852058,-3.4025050304072715,1.2622260586767504,0.3390506010175022,-1.5456958615438627,-0.1118936690957909,3.4518543095802485,3.5581839879331119,2.2106865018489787,1.1608246286406561,0.4090809214884603
1.5114227865655345,-3.5018618626765532,1.2670345181778750,0.3391782919002987,-1.5564617365390130,-0.1050735825265336,3.5451634829459189,3.6193992710372989,2.2818581964312421,1.1885152501073306,0.4265666919065460
1.5123272327966497,-3.6012815409709873,1.2751014193563019,0.3448000004882119,-1.5665844543123342,-0.0977809442848524,3.6395185823902381,3.6815476465044847,2.3499161224040006,1.2157511123376761,0.4438541812447997
1.5122604659133834,-3.7007459452004579,1.2854061186541781,0.3547204271878702,-1.5759092143840459,-0.0892287438291816,3.7361484088000325,3.7444971882764206,2.4139789725141894,1.2425391075226011,0.4608265133132373
1.5113099585041256,-3.8002425801826383,1.2873026132216967,0.3579909952232735,-1.5843379050165733,-0.0802657079984202,3.8323884277711371,3.8081027666872762,2.4730744089549703,1.2688879610689969,0.4773729294685919
1.5095653125156145,-3.8997617918749281,1.2751324859206745,0.3478731040404104,-1.5918849539991928,-0.0716524509052806,3.9300135455732241,3.8722033967699669,2.5261879090753689,1.2948073712778378,0.4933326470536449
1.5071115740852883,-3.9992959361427416,1.2724176068803361,0.3417340308842821,-1.5986038282945003,-0.0636248663579571,4.0291223783626329,3.9366223892741767,2.5253565646084506,1.3203078466275866,0.5085634188161628
1.5040280479357762,-4.0988389100839591,1.2983661012437373,0.3426923166641622,-1.6045561710132477,-0.0562471877711739,4.1297862283223310,4.0000000000000000,0.0000000000000000,1.3454043465096337,0.5229035388700728
1.5003877784906536,-4.1983857461077490,1.3435313167760725,0.3459285770559885,-1.6098084984108798,-0.0495670239031583,4.2320422242744193,4.0000000000000000,0.0000000000000000,1.3703076898142741,0.5361740536299944
1.4962570410022762,-4.2979322661207533,1.3501087589989587,0.3498650834756353,-1.6144321804473822,-0.0436318340118441,4.3358865738900318,4.0000000000000000,0.0000000000000000,1.3952157365046729,0.5481827124597591
1.4916948393990634,-4.3974748045551637,1.3525426807741787,0.3526782438260892,-1.6185034161303697,-0.0384888434022716,4.4412685024513987,4.0000000000000000,0.0000000000000000,1.4201274940719273,0.5587298165747365
1.4867524095085907,-4.4970100088858613,1.3725852574001118,0.3514865534631993,-1.6221031942805135,-0.0341849045668501,4.5480855859850813,4.0000000000000000,0.0000000000000000,1.4450419533706658,0.5676159552008181
1.4814727272607195,-4.5965347261588612,1.4068312085928276,0.3502255394995038,-1.6253172366647144,-0.0307663026194956,4.6561812525260535,4.0000000000000000,0.0000000000000000,1.4699581182954051,0.5746513825751751
1.4758900219936550,-4.6960459839735238,1.4101735517286276,0.3542638473146000,-1.6282359150005714,-0.0282785049556675,4.7653451820548440,4.0000000000000000,0.0000000000000000,1.4948750515812692,0.5796665114474631
1.4700292966796549,-4.7955410742476960,1.3890249139019364,0.3445814609789185,-1.6309541405373444,-0.0267657150789125,4.8806842505532080,4.0000000000000000,0.0000000000000000,1.5197919397922195,0.5824610459488559
1.4639058554429505,-4.8950177478553494,1.3720759576535830,0.3378295191287778,-1.6335711923625134,-0.0262706966892849,4.9912898796341638,4.0000000000000000,0.0000000000000000,1.5447081808869139,0.5829757723519128
1.4575248461682029,-4.9944745282684764,1.3688191317066265,0.3330046113021813,-1.6361905795449019,-0.0269748772896817,5.1019172221288320,4.0000000000000000,0.0000000000000000,1.5696234980250587,0.5811877875213065
1.4508807970017132,-5.0939111639613701,1.3800758082361237,0.3210421871321756,-1.6389478147744345,-0.0300474781670979,5.2122293535763529,4.0000000000000000,0.0000000000000000,1.5945380870082830,0.5771121970574719
1.4439516128580769,-5.1933287720687566,1.3910077924922939,0.3099999900178140,-1.6421795571311906,-0.0378480922132453,5.3219204263527118,4.0000000000000000,0.0000000000000000,1.6194527844711892,0.5708069782166227
1.4366645657411925,-5.2927264376250616,1.3872586718246640,0.3130029214923301,-1.6464918180694550,-0.0495277331704292,5.4307222244744588,4.0000000000000000,0.0000000000000000,1.6443688899224416,0.5623302643810839
1.4288770800165951,-5.3920953061681773,1.3796353206899141,0.3205798638227169,-1.6520523151088256,-0.0598918156741186,5.5422890481437923,4.0000000000000000,-0.2077354241423106,1.6692872779238876,0.5516856722519212
1.4204837181405443,-5.4914221978973767,1.3714620951994565,0.3293048628414735,-1.6584315175978217,-0.0666769001416286,5.6480707264605190,3.9948198327131719,-2.5174789840311451,1.6942236473862256,0.5390119320579152
1.4114284457042210,-5.5906906785182517,1.3628004046499782,0.3388172880880878,-1.6653451237112424,-0.0720370978239079,5.7523643207921422,3.9315006909688353,-2.4633449493421864,1.7193754528813190,0.5244750858227766
1.4016636912211262,-5.6898796473230684,1.3531275404929535,0.3486994117039443,-1.6727920479470733,-0.0778068881891797,5.8551013579306064,3.8685478007779404,-2.4017890963995945,1.7449313094444472,0.5082555491507204
1.3911350474762212,-5.7889634839352206,1.3421742730170252,0.3588470126676325,-1.6808528234072302,-0.0844046317784228,5.9548659722999373,3.8061825515015020,-2.3337237733051786,1.7708974733220029,0.4905278146762455
1.3797804185986084,-5.8879129179223506,1.3303766259186840,0.3698633759627665,-1.6896088638002080,-0.0918028068006367,6.0550834770812809,3.7446166036173909,-2.2602527103427867,1.7972784651893126,0.4714466316276765
1.3675307952604860,-5.9866958021692094,1.3179517782120325,0.3820690926593182,-1.6991342767003026,-0.0999325392550718,6.1537555249739508,3.6840446077194544,-2.1826893268388963,1.8240772366809970,0.4511845054652679
1.3543110392080402,-6.0852777144624008,1.3046579323257650,0.3953409688823842,-1.7094958227936736,-0.1087245140232276,6.2509501894288917,3.6246358651811224,-2.1020366672814732,1.8512953761605038,0.4298814573412917
1.3400406664160014,-6.1836224113165645,1.2903086730278730,0.4096383367307803,-1.7207529505292172,-0.1181094471316124,6.3467627401389288,3.5665398917257685,-2.0190735591731892,1.8789333209973504,0.4076599964054250
1.3246346136673910,-6.2816921584042396,1.2748540263095025,0.4244613785032551,-1.7329579245072564,-0.1280186435136844,6.4413113367268169,3.5098903105408006,-1.9345998447173880,1.9069905361134583,0.3846256698219835
1.3080039723594801,-6.3794479616978110,1.2585194199947052,0.4368127103291032,-1.7461560501690885,-0.1383845133683318,6.5362638069835644,3.4548022795572115,-1.8492584546139244,1.9354656913937671,0.3609067768364814
1.2900566725445570,-6.4768497231741575,1.2422596316190244,0.4394357743413394,-1.7603859842793783,-0.1491410446087220,6.6290630160130952,3.4013750624306329,-1.7635134914215886,1.9643568488159635,0.3366013961239644
1.2706981019619530,-6.5738563439511504,1.2273997361543965,0.4296717283529901,-1.7756801312882047,-0.1602242975257906,6.7209892504573485,3.3496956700954637,-1.6777877648055268,1.9936616387064623,0.3117645011370887
1.2498316418861892,-6.6704257955576010,1.2121952244059850,0.4241148543361539,-1.7920651274631787,-0.1715766392750395,6.8142473244735982,3.2998388649744315,-1.5924952941439299,2.0233774383843857,0.2864645001398160
1.2273591025393973,-6.7665151784396080,1.1899085047726727,0.4364833325681045,-1.8095631474846812,-0.1845219485571273,6.9052809283917824,3.2518663146852931,-1.5080112120059324,2.0535015778186105,0.2608968908926785
1.2031808973607654,-6.8620807471607517,1.1598180696331093,0.4534807022724929,-1.8284637293679395,-0.2010417169520979,6.9957709504060190,3.2058267304010921,-1.4246452961102232,2.0840315791326987,0.2350172970850147
1.1771448584408446,-6.9570631898319402,1.1333149691785653,0.4789345581890466,-1.8491810172679024,-0.2208622932803404,7.0860606238581374,3.1617572810648391,-1.3426694974297608,2.1149652083361068,0.2088279281959718
1.1490754071567726,-7.0513890221435540,1.1137891715289061,0.5154706768391004,-1.8719515024013011,-0.2428275664522641,7.1786007414379007,3.1196850726990459,-1.2622941894920083,2.1462999548588595,0.1824690680975133
1.1187810689685378,-7.1449683268069517,1.0983058288306036,0.5605116512183228,-1.8969632737017781,-0.2665308105911873,7.2689328086774339,3.0796289706965303,-1.1836663285057103,2.1780327334266159,0.1558372528368455
1.0860588882718687,-7.2376918954161633,1.0792068824097691,0.6068153748427265,-1.9243751167440557,-0.2916781418440934,7.3595477818207549,3.0416014602548445,-1.1068751955537268,2.2101596170980411,0.1288500455614978
1.0506987784103012,-7.3294284559624572,1.0496560845430916,0.6480938406050497,-1.9543198874588059,-0.3180067849934665,7.4522361664030230,3.0056103385693671,-1.0319758185511370,2.2426755880313962,0.1015307650260552
1.0124879060381902,-7.4200220600616689,1.0122133858368101,0.6872882625390924,-1.9869072609215497,-0.3452795823821264,7.5436340036902054,2.9716596481965278,-0.9590871691889288,2.2755743146900356,0.0739589008716015
0.9712152142563961,-7.5092897224964776,0.9704335898773440,0.7256897830424468,-2.0222258083120455,-0.3732793618410722,7.6357850501094680,2.9397473012555118,-0.8884560605633895,2.3088479815330643,0.0459461050989276
0.9266761683949368,-7.5970194139787424,0.9249998491158079,0.7536169160045985,-2.0603444616736439,-0.4018035521133982,7.7288702079525695,2.9098603270928876,-0.8201308269069312,2.3424872074770824,0.0174729148293967
0.8786777833101970,-7.6829685232999561,0.8761396087889400,0.7645567823912254,-2.1013134011523951,-0.4306588475068403,7.8230686651816717,2.8819809612617813,-0.7539835196456768,2.3764810105587824,0.0114628533968011
0.8270439611096336,-7.7668629218023950,0.8252119183186657,0.7915968340861066,-2.1451643891047016,-0.4596560101212473,7.9176669264007868,2.8560923742834601,-0.6898133199111126,2.4108167570356911,0.0407902192285650
0.7716211300768088,-7.8483967791952143,0.7750567339158360,0.8542893245217926,-2.1919106069113212,-0.4886046928881003,8.0138802519858690,2.8321811302187099,-0.6272967134670068,2.4454801121414338,0.0704685022858078
0.7122841210785352,-7.9272332918390616,0.7247887457211737,0.9366298070648500,-2.2415460037016999,-0.5173090910772772,8.1116446068748864,2.8102414960721469,-0.5662713613482395,2.4804550030910528,0.1005275843398078
0.6489421674913656,-8.0030064939014665,0.6676818760057398,1.0230167087423756,-2.2940443848235694,-0.5455630780092380,8.2111265501013708,2.7902698704611648,-0.5067161938419866,2.5157236516121992,0.1308805616484729
0.5815447965268219,-8.0753242976306439,0.6076572225256203,1.1025442111057571,-2.3493580120525728,-0.5731486597231326,8.3124835398485768,2.7722596018081602,-0.4486118749159183,2.5512667601054337,0.1614098163341229
0.5100873801351322,-8.1437729354586121,0.5461166011446391,1.1775981390881760,-2.4074167365221677,-0.5998312933071809,8.4212704305397530,2.7562006021018584,-0.3920268134025668,2.5870638502054497,0.1918331908140291
0.4346157725856233,-8.2079227604754479,0.4679854143428257,1.2628203405193150,-2.4681262348747079,-0.6253637636636359,8.5278981203120434,2.7420758949955784,-0.3371612747323262,2.6230938017888268,0.2219276409831116
0.3552297922883799,-8.2673356490581487,0.4101900863392546,1.3418200831462066,-2.5313687667870628,-0.6494805557823466,8.6368049797506412,2.7298565353215838,-0.2843381322035828,2.6593356853909564,0.2515543340815070
0.2720842994011852,-8.3215732453317610,0.3648902728277274,1.3685950556287625,-2.5970016008930927,-0.6715220126682241,8.7569778145217096,2.7194968630811522,-0.2339732876971751,2.6957700255905825,0.2802172923079754
0.1853877138412874,-8.3702068865202808,0.3188412802087662,1.3312584081623131,-2.6647852009331592,-0.6879594318686110,8.8716846440113368,2.7109309373590982,-0.1865317802092502,2.7323807250698353,0.3075233550580712
0.0954031491579081,-8.4128396112201429,0.3099999900466442,1.2662765543707981,-2.7338909594133547,-0.6918384830717728,8.9999068555796189,2.7040709144308686,-0.1425523039366378,2.7691574229629992,0.3328561767114714
0.0024832666455911,-8.4492035844759741,0.3352378114693024,1.2122405582022557,-2.8027066074264537,-0.6854054229382560,9.1323997447526395,2.6988055151463048,-0.1027170304849819,2.8060940359756104,0.3557207856518538
-0.0929283818994304,-8.4792234679936112,0.3807316470101146,1.1791044167064575,-2.8708382910550281,-0.6830783910151710,9.2687287068909026,2.6949959374007650,-0.0678622166595715,2.8431821189113489,0.3752367599986252
-0.1904037221993339,-8.5027433124993852,0.4286195399668542,1.1572487173473345,-2.9395242248418474,-0.6908731270432689,9.4082708552754060,2.6924698029855652,-0.0389679732235589,2.8804065795839517,0.3907390508521040
