# x_m,y_m,w_tr_right_m,w_tr_left_m,psi,kappa,s,velocity,acceleration,time,n
0.0076246932423217,-0.3934104813414916,0.7563845019467084,0.6436154980532918,1.5953497229046145,1.6722560334308181,0.0000000000000000,1.5942010074799551,0.0000000000000000,0.0000000000000000,0.0000000000000000
0.1066482697559080,-0.4038270004249959,0.7465368431863435,0.6534631568136566,1.7529474705281038,1.4978061231683557,0.0995699381106520,1.5942010074799551,0.0121614071390017,0.0624575807212968,0.0000000000000000
0.2028684546504189,-0.4293710607455909,0.7213963707158417,0.6786036292841584,1.9105071806055007,1.6706642949478037,0.1991230545801834,1.5949602704182912,0.0000000000000000,0.1248897425310274,0.0000000000000000
0.2938495811634387,-0.4698427373944328,0.7000197136896825,0.6968884205234694,2.0639324163309780,1.4154367076084950,0.2986997686871800,1.5949602704182912,0.7256580771659981,0.1873218394013035,0.0000000000000000
0.3781583216764639,-0.5228432660984883,0.6866713059373749,0.7452488250910844,2.1977206592447311,1.2728181108283279,0.3982840032316199,1.6396421781974020,0.9255482250990347,0.2488961664640057,0.0000000000000000
0.4551900524354945,-0.5860031074151003,0.6352748664982961,0.8633309469879329,2.3138804162121689,1.0607344586819212,0.4978985257615773,1.6949402825962041,1.3441920111804293,0.3086424907496856,0.0000000000000000
0.5250543664023031,-0.6570339239254051,0.6206643538990122,0.9476576041584323,2.4128277660052855,0.9261852485274187,0.5975298424254325,1.7721934999917994,1.4989412487809342,0.3661143524725907,0.0000000000000000
0.5881646331289297,-0.7341466814159868,0.5820510032550377,0.9848365483582939,2.4953725523244650,0.7310011957096170,0.6971756307664719,1.8545609092819089,1.9400087358399019,0.4210647445290489,0.0000000000000000
0.6453565034309262,-0.8157545210962344,0.5902238762832114,0.9733329383151089,2.5637959639063030,0.6423782898752443,0.7968287768578893,1.9560296813134253,2.0030774430871316,0.4733679997448492,0.0000000000000000
0.6972229467873082,-0.9008563977532201,0.5909660876526887,0.9553686751383115,2.6231329431440900,0.5485694323982679,0.8964904914577376,2.0555564645827142,2.1594313496159026,0.5230549370186767,0.0000000000000000
0.7443328967470816,-0.9886880590648166,0.5713465215026484,0.9293758465695967,2.6742285763409717,0.4768300239708177,0.9961586815384617,2.1577223193746158,2.2688136647908288,0.5703663992747349,0.0000000000000000
0.7872014504417960,-1.0786703277774692,0.5583514464054294,0.9089760241460123,2.7187613607807384,0.4168227189547430,1.0958307517414660,2.2600974132272498,2.3703648342367476,0.6154891413673838,0.0000000000000000
0.8262792087326831,-1.1703645111283487,0.5573001211386647,0.8241095267572525,2.7578866414485455,0.3682858050799370,1.1955046924352386,2.3623224854149658,2.4529628075362480,0.6586154444204884,0.0000000000000000
0.8619521038107444,-1.2634369221989998,0.5689278366668782,0.7879065130938189,2.7926179447727959,0.3286392734072222,1.2951793087914334,2.4636484689686395,2.5206327310481296,0.6999230350787606,0.0000000000000000
0.8945462629477499,-1.3576318491400128,0.5911387579157621,0.8081878908708011,2.8237660136983003,0.2963774989396142,1.3948540973353336,2.5636011483028387,2.5730381253480750,0.7395768402932302,0.0000000000000000
0.9243347716607603,-1.4527514383850391,0.6210802514525819,0.7790267540897056,2.8519927924295563,0.2700164346838344,1.4945290265276217,2.6617636321593032,2.6118712558670074,0.7777272597873780,0.0000000000000000
0.9515446695147206,-1.5486408951926565,0.6490934598665805,0.7818327503099410,2.8778509990120327,0.2488458763078437,1.5942043317344927,2.7578367904328713,2.6346986344387706,0.8145105269785768,0.0000000000000000
0.9763633713674760,-1.6451776379922114,0.6741761091295387,0.8223804279270016,2.9017509573901004,0.2307177040776242,1.6938803603070807,2.8514726643259332,2.6533592326470181,0.8500500276520599,0.0000000000000000
0.9989441766218576,-1.7422633385541950,0.6975931440481552,0.8024068559518448,2.9242074686794730,0.2198751663320981,1.7935574691111960,2.9427631079065741,2.6219027707306086,0.8844556378903573,0.0000000000000000
1.0193771782582597,-1.8398246851800597,0.7187526495566917,0.7812473504433083,2.9460448115582754,0.2182922123261615,1.8932355705744830,3.0302718178525629,2.5097004298796008,0.9178316695734864,0.0000000000000000
1.0377203149601066,-1.9378003188564308,0.7374630270997541,0.7625369729002459,2.9665725677620673,0.1935966234816090,1.9929135293133591,3.1117311776347960,2.6548911055563043,0.9502894716332091,0.0000000000000000
1.0541316377138743,-2.0361174437865155,0.7541968936683010,0.7458031063316990,2.9857920913837708,0.1920423512716420,2.0925909518775798,3.1956433353935929,2.5581123080414776,0.9818961004637403,0.0000000000000000
1.0686636436215013,-2.1347298134862669,0.7688888055051607,0.7311111944948393,3.0046871382104658,0.1870877460270788,2.1922683247036119,3.2744630331650577,2.5080278881070881,1.0127077648006397,0.0000000000000000
1.0813474025157466,-2.2335971635640113,0.7815313027989282,0.7184686972010718,3.0232984221541082,0.1863468736194113,2.2919459583587232,3.3499398092532338,2.4127735196939359,1.0428018384933935,0.0000000000000000
1.0921924768813047,-2.3326834780435508,0.7930529489752750,0.7082423936602311,3.0418433731781129,0.1857551158045448,2.3916240068705830,3.4209790758652643,2.3203355536772907,1.0722448284931518,0.0000000000000000
1.1011927748569759,-2.4319548200139129,0.8078541218136676,0.7051974913611828,3.0605842419334754,0.1902770595629578,2.4913025135821476,3.4879324826648475,2.1628163971786294,1.1010998821053222,0.0000000000000000
1.1083294972686988,-2.5313776879343335,0.8323859035922284,0.7155390008633208,3.0791505518580964,0.1822519832300038,2.5909811947145913,3.5492036255522654,2.1841056203732889,1.1294292136969197,0.0000000000000000
1.1136531846645472,-2.6309139657584337,0.8572847325362181,0.7298424934107359,3.0970917080140454,0.1777328097063643,2.6906597392994978,3.6100226196729559,2.1612379565390394,1.1572753918090828,0.0000000000000000
1.1172141906010398,-2.7305288051634093,0.8671068204288602,0.7326152081219793,3.1145389943664767,0.1723431190580887,2.7903382073503202,3.6692125983312271,2.1567500386483371,1.1846624634081107,0.0000000000000000
1.1190663424549572,-2.8301901069528803,0.8690642557185858,0.7309357442814143,3.1313636358068324,0.1652390343329435,2.8900167182785137,3.7273428010240988,2.1842401755278398,1.2116151476094299,0.0000000000000000
1.1192793119216611,-2.9298685111016760,0.8692681206261499,0.7307318793738502,-3.1357796308509958,0.1566396578682629,2.9896953499386867,3.7853042810550588,2.2415352800920818,1.2381513686167891,0.0000000000000000
1.1179379020676798,-3.0295382863796045,0.8679343442337916,0.7320656557662085,-3.1206522748224597,0.1468853433675491,3.0893741515183062,3.8438776776856187,2.3243828194900984,1.2642822964459304,0.0000000000000000
1.1151409921237037,-3.1291780378765846,0.8651753474697635,0.7348246525302365,-3.1066055012219240,0.1349570578272966,3.1890531502272350,3.9036879876772690,2.4514684049045696,1.2900139915394138,0.0000000000000000
1.1110001887270160,-3.2287711976466680,0.8610347931323094,0.7389652068676907,-3.0936333648679133,0.1253224876724128,3.2887323543059162,3.9657913137210898,2.5471070091756443,1.3153471045094087,0.0000000000000000
1.1056258767978919,-3.3283055449051373,0.8556820471040448,0.7443179528959553,-3.0819307413370955,0.1094843021195436,3.3884116877350734,4.0293037365877957,2.7633720233515988,1.3402822260562892,0.0000000000000000
1.0991625492870272,-3.4277751727855881,0.8496798566627315,0.7512117870620886,-3.0717130836601174,0.0955269007020235,3.4880910811581276,4.0970954462716911,2.9578162711994804,1.3648144675029812,0.0000000000000000
1.0917536907038723,-3.5271789167991265,0.8468539114612876,0.7631452407596770,-3.0629265099021588,0.0807702077802809,3.5877705449880173,4.1684359388026104,3.1814363629802025,1.3889337791808458,0.0000000000000000
1.0835452303565776,-3.6265199137467943,0.8539400648625178,0.7867245192599718,-3.0556249679518279,0.0657303668039128,3.6874500940230606,4.2438315776892361,3.4269172251874229,1.4126323952411712,0.0000000000000000
1.0746863611157595,-3.7258051101421343,0.8547993682289250,0.8053107996281740,-3.0498315449176996,0.0505106124845114,3.7871297297943012,4.3235742368371630,3.6947067629001076,1.4359018978021985,0.0000000000000000
1.0653276647160672,-3.8250445168671754,0.8270751495468642,0.7962232263236820,-3.0455538340829298,0.0353185396363500,3.8868094421004660,4.4079324853955173,3.9830319274893742,1.4587340882768056,0.0000000000000000
1.0556193200634445,-3.9242503867408227,0.8073446875892870,0.7960856223383367,-3.0427806368930330,0.0203235856970724,3.9864892122310254,4.4971017566555842,4.2906217365095580,1.4811213733609785,0.0000000000000000
1.0457094172018149,-4.0234363597928358,0.8231144555142099,0.8043206455589571,-3.0414840279102711,0.0056918876977000,4.0861690167302394,4.5912199774640996,4.6159035732997999,1.5030571734823570,0.0000000000000000
1.0357423927679474,-4.1226166186571573,0.8787796477235230,0.8140813275502102,-3.0416202709993430,-0.0084255013879707,4.1858488307572488,4.6903651991046189,4.5428362557508386,1.5245362230478665,0.0000000000000000
1.0258575976134656,-4.2218050922969645,0.8759937700381204,0.8240062299618798,-3.0431312969645701,-0.0218920901320806,4.2855286305074527,4.7859360335794427,4.1895644363365614,1.5455739248478908,0.0000000000000000
1.0161880038037163,-4.3210147407421333,0.8662635680209928,0.8337364319790074,-3.0459461313777352,-0.0345854660081162,4.3852083946978819,4.8724134992489505,3.8323298887090766,1.5662150838474944,0.0000000000000000
1.0068590562066801,-4.4202569470939022,0.8762774994725823,0.8360075295958775,-3.0499827740655787,-0.0464068394086036,4.4848881056968377,4.9501943779190896,3.4790420675097429,1.5865110606889712,0.0000000000000000
0.9979876730063219,-4.5195410361010149,0.9221335776635844,0.8331955646814893,-3.0551489419429263,-0.0572486828640825,4.5845677514117975,5.0197613230725810,3.1377354132862387,1.6065070664295074,0.0000000000000000
0.9896813992797616,-4.6188739314462115,0.9320294921668552,0.8523641991877839,-3.0613473672021492,-0.0671185239302107,4.6842473294650793,5.0816867302790136,2.8128517709945280,1.6262427671977173,0.0000000000000000
0.9820377178164398,-4.7182599567685530,0.9028377897415590,0.8386301743835239,-3.0684643229602777,-0.0756784711924459,4.7839268554254577,5.1365657288652411,2.5183672336708498,1.6457528598204878,0.0000000000000000
0.9751428988935124,-4.8177007391707312,0.8803887390743145,0.8298564703285037,-3.0764021234502001,-0.0835885379316211,4.8836063805684748,5.1852065327168013,2.2382088405740239,1.6650672803709252,0.0000000000000000
0.9690441767237185,-4.9171936021372558,0.8691992790499322,0.8310585883733117,-3.0841432341648609,-0.0717318781979274,4.9832859882792802,5.2280564596545380,-2.3320401919954112,1.6842120206475955,0.0000000000000000
0.9636535971210199,-5.0167273646334953,0.8751068898580915,0.8255449844894246,-3.0906000561512084,-0.0578197449389816,5.0829656162135315,5.1834024103868197,-3.0098181567493918,1.7033600822551915,0.0000000000000000
0.9588449507606293,-5.1162909425600080,0.9060511926733315,0.7960225240751123,-3.0959168956388292,-0.0488589044455512,5.1826452486835004,5.1251951584960604,-3.3122976961781387,1.7226992080293624,0.0000000000000000
0.9545207918548219,-5.2158767848744434,0.9046439670661494,0.7955122951537401,-3.1003265586886988,-0.0396178305468657,5.2823249273533186,5.0603644011715030,-3.6138506505770178,1.7422719527737016,0.0000000000000000
0.9505918140608312,-5.3154790611344236,0.9006313903577272,0.7993686096422730,-3.1038716191581566,-0.0315112006058623,5.3820046660301184,4.9886704136183244,-3.8721063767314088,1.7621106219621285,0.0000000000000000
0.9469784634841580,-5.4150933328827460,0.8970245690819724,0.8029754309180278,-3.1066916294856268,-0.0250702059278523,5.4816844505319846,4.9106915029666691,-4.0726099443709476,1.7822492501569149,0.0000000000000000
0.9436069361026101,-5.5147160956780583,0.8939386348310610,0.8066861785810444,-3.1086551143860497,-0.0143256413228802,5.5813642482036068,4.8273157310050037,-4.3763454831321624,1.8027215696524035,0.0000000000000000
0.9403850233989480,-5.6143438166011128,0.8917727789273584,0.8109457342604648,-3.1097689833177080,-0.0080232952977316,5.6810440530679429,4.7360860042078325,-4.5485613264763352,1.8235676676464490,0.0000000000000000
0.9372422713973854,-5.7139740743971474,0.8885286984083707,0.8140200784215608,-3.1102390264178621,-0.0014077635018210,5.7807238662632319,4.6393653825272656,-4.5826343321977969,1.8448316706439625,0.0000000000000000
0.9341100937022974,-5.8136046663057934,0.8841517296596987,0.8158799027530211,-3.1099470647183254,0.0072657536203313,5.8804036805747604,4.5398368774670903,-4.4506510836261404,1.8665502931316620,0.0000000000000000
0.9309096644397268,-5.9132330846688577,0.8809210487916816,0.8190789512083185,-3.1089081099013147,0.0135800881259998,5.9800834904310722,4.4410402797660886,-4.3159230572069802,1.8887485279167864,0.0000000000000000
0.9275732237983298,-6.0128570254909155,0.8775873507262985,0.8224126492737017,-3.1072050587348139,0.0205903554932526,6.0797632848784451,4.3430885461982838,-4.2145388672534141,1.9114439588291237,0.0000000000000000
0.9240340016257349,-6.1124739493907807,0.8740376359955783,0.8259623640044219,-3.1048539095969199,0.0265836865973955,6.1794430602637185,4.2452573001925424,-3.9936736541379543,1.9346567583991743,0.0000000000000000
0.9202197226834563,-6.2120807198682026,0.8702392958072600,0.8297607041927402,-3.1015710604897948,0.0392842582558588,6.2791228347858921,4.1504255885534009,-3.9824528638629539,1.9584022418441933,0.0000000000000000
0.9160322932684278,-6.3116724694050292,0.8660603444144357,0.8339396555855645,-3.0975301725975131,0.0417932064049102,6.3788025776673409,4.0536517871055651,-3.8493646818182592,1.9827022912750272,0.0000000000000000
0.9114182010296660,-6.4112452838464051,0.8614262069627587,0.8385737930372414,-3.0928833276152119,0.0514424494959738,6.4784822407033111,3.9578638256427832,-3.8066189637239765,2.0075863875819366,0.0000000000000000
0.9063009716070424,-6.5107934577245192,0.8571409125377197,0.8318406079840531,-3.0874971427422957,0.0566275425198976,6.5781618522566827,3.8608032147547124,-3.5516968851024218,2.0330842406145178,0.0000000000000000
0.9005992580529061,-6.6103098988533953,0.8592042298631917,0.7650387901452473,-3.0809111166967269,0.0755165791684020,6.6778414970815438,3.7679885476199595,-3.5510096190219955,2.0592167260538194,0.0000000000000000
0.8941776407096345,-6.7097824372973953,0.8634371591935392,0.7749178774789838,-3.0733177657090458,0.0768390100560480,6.7775210991764379,3.6728478382961445,-3.4800965784194577,2.0860093060609719,0.0000000000000000
0.8869767855283770,-6.8092013944855179,0.8443229952444309,0.7702222886412868,-3.0650626310941593,0.0887950510567565,6.8772004920503678,3.5771529761973668,-3.4018723364187107,2.1135070665231943,0.0000000000000000
0.8788982794538012,-6.9085527001145435,0.8305890632743711,0.7726009258910101,-3.0556760896409889,0.0995405879555996,6.9768796984606771,3.4810675870357466,-3.3048799480379918,2.1417519210208127,0.0000000000000000
0.8698302184238931,-7.0078184655424742,0.8283212816574679,0.7884981630419219,-3.0450913145399459,0.1128374664161638,7.0765587931437404,3.3851110266869537,-3.2460530817326614,2.1707867307136004,0.0000000000000000
0.8596490236760815,-7.1069762360936100,0.8364760651441648,0.8171312064981667,-3.0332645784519876,0.1244597095332805,7.1762378791506078,3.2881376878658575,-3.0494678932355015,2.2006609614730479,0.0000000000000000
0.8482170505887464,-7.2059976994245787,0.8462332060395419,0.8494669718465123,-3.0196299939819928,0.1491118795853144,7.2759170655882786,3.1943563509778934,-3.0488696630964016,2.2314143060470291,0.0000000000000000
0.8353422299704265,-7.3048417631688718,0.8351574152808083,0.8648425847191918,-3.0043756480521600,0.1569604257339613,7.3755961002116122,3.0977565636462083,-2.9481364680812754,2.2630981095565499,0.0000000000000000
0.8208994609772443,-7.4034684404388971,0.8204771220859995,0.8795228779140006,-2.9876335302133334,0.1789648807909033,7.4752746588163399,3.0013936329972473,-2.8627305629752651,2.2957841577406342,0.0000000000000000
0.8047011683405740,-7.5018215433534046,0.8039761242306744,0.8960238757693257,-2.9687402611635729,0.2001261587559357,7.5749527283063482,2.9047651933024774,-2.7580303091850205,2.3295380991504548,0.0000000000000000
0.7865367946429365,-7.5998300807736161,0.7854274195698667,0.8954865717443713,-2.9475053915362945,0.2259526444681577,7.6746302978948790,2.8085286738930479,-2.6799702894430268,2.3644313050332668,0.0000000000000000
0.7661698283666480,-7.6974042010267016,0.7654475368227390,0.8445707560675211,-2.9236920094952215,0.2518672410210943,7.7743073878326525,2.7117466756569821,-2.5018170831324977,2.4005443912929580,0.0000000000000000
0.7433347985442503,-7.7944300411075176,0.7451265965768790,0.8618008940616143,-2.8965152664036120,0.2934449124487487,7.8739841264950803,2.6181718999682784,-2.3786987905185271,2.4379471160243522,0.0000000000000000
0.7176763058070128,-7.8907468457772012,0.7325157024530647,0.9035784394770136,-2.8653199367260940,0.3325140204293617,7.9736600268488012,2.5259901445874693,-2.2820998644816313,2.4767001333245018,0.0000000000000000
0.6888393098901090,-7.9861581262034358,0.7231908112137744,0.9568541330534336,-2.8301798142861148,0.3726255764209064,8.0733339189474105,2.4342749760969569,-2.2140719888294234,2.5168890706790661,0.0000000000000000
0.6564789123428878,-8.0804297900303030,0.6966739754814132,1.0023461629573203,-2.7909937065287238,0.4137150535119153,8.1730050879487823,2.3418660022495303,-1.8674402811037936,2.5586261841576041,0.0000000000000000
0.6201840876022494,-8.1732558075807891,0.6869049204441071,1.0322116456562265,-2.7452380070383260,0.5045058874417071,8.2726744605626248,2.2609916342324965,-1.7597027455785634,2.6019337902081876,0.0000000000000000
0.5793217676911239,-8.2641600701240829,0.6754872150293357,1.0549897366138246,-2.6921013607107529,0.5619169755512357,8.3723404735111693,2.1820444671950416,-1.5710212849894496,2.6467977123881226,0.0000000000000000
0.5334082286572966,-8.3526160343299445,0.6077129741952425,1.0997104820149195,-2.6322448199404600,0.6394200794881510,8.4720024555815634,2.1090699055609425,-1.2664553801623519,2.6932481089112921,0.0000000000000000
0.4819225452226239,-8.4379411344724566,0.6236369352076564,1.1597965471273683,-2.5633804828431845,0.7428490617123826,8.5716576025287488,2.0483550162309703,-0.9060482065031220,2.7411889130493652,0.0000000000000000
0.4242568388352331,-8.5192129174687352,0.6437946953631599,1.1536394636042586,-2.4837117925708703,0.8565560699241614,8.6713091775516808,2.0037914090216828,-0.7899165290319707,2.7903735004581076,0.0000000000000000
0.3599479454245166,-8.5953206728055545,0.5551094663192615,1.0907689660393127,-2.3953087711937409,0.9184532831769806,8.7709486486167165,1.9641197215527755,-0.3702533291030742,2.8405961328639955,0.0000000000000000
0.2888967425639128,-8.6651649321608630,0.6187413760772407,0.9812586239227594,-2.2979989037605923,1.0356065338956972,8.8705804406955018,1.9452476128218745,-0.0131075986752699,2.8915669337926948,0.0000000000000000
0.2110650247451421,-8.7273650456507639,0.6389152494106130,0.8969456904385027,-2.1906341959184079,1.1208276069101428,8.9702129174125709,1.9445761466575540,0.0000000000000000,2.9427941784586014,0.0000000000000000
0.1268848975845344,-8.7806424098797127,0.6766211879042149,0.8364572764223573,-2.0796897179948379,1.1078996161423200,9.0698360640601248,1.9445761466575540,-0.0049425954227678,2.9940254695647854,0.0000000000000000
0.0373813834619977,-8.8243728567805686,0.7490538767600843,0.8050412800820713,-1.9716081230355416,1.0628077383132510,9.1694514796665043,1.9443229342768948,0.0000000000000000,3.0452561204678936,0.0000000000000000
-0.0563141459186940,-8.8582443955022683,0.8063793110879689,0.7895951959034807,-1.8627394825620733,1.1242221356663396,9.2690814619073123,1.9443229342768948,0.0000000000000000,3.0964975991772214,0.0000000000000000
