# x_m,y_m,w_tr_right_m,w_tr_left_m,psi,kappa,s,velocity,acceleration,time,n
-0.0035397042124609,-0.0886075515392893,0.8962419831565291,0.9719121860704114,0.1369512197735105,-0.0236420993606716,0.0000000000000000,4.0000000000000000,0.0000000000000000,0.0000000000000000,0.0000000000000000
0.0955317985119419,-0.0750735956297707,0.8888639604092431,0.9397096567253775,0.1345822758346902,-0.0237407448453879,0.0999916527247756,4.0000000000000000,0.0000000000000000,0.0249979131811939,0.0000000000000000
0.1946351846253313,-0.0617751273601532,0.8578122952489039,0.9670164835573547,0.1321954116995869,-0.0240005348921007,0.1999833043635879,4.0000000000000000,0.0000000000000000,0.0499958260908970,0.0000000000000000
0.2937701894829720,-0.0487144621199010,0.8815985272694212,0.9803572315217937,0.1297846497965767,-0.0242187409281342,0.2999749548382268,4.0000000000000000,0.0000000000000000,0.0749937387095567,0.0000000000000000
0.3929365337589422,-0.0358939285960780,0.8789230321116680,0.9510756620122292,0.1273514307764096,-0.0244497156508865,0.3999666040740291,4.0000000000000000,0.0000000000000000,0.0999916510185073,0.0000000000000000
0.4921339231963507,-0.0233158689752405,0.8782964609428410,0.9280815376945526,0.1248952044660838,-0.0246789261649311,0.4999582520003546,4.0000000000000000,0.0000000000000000,0.1249895630000886,0.0000000000000000
0.5913620483511259,-0.0109826391393115,0.8880692511790942,0.9138112234671052,0.1224159510696137,-0.0249102968663841,0.5999498985510419,4.0000000000000000,0.0000000000000000,0.1499874746377605,0.0000000000000000
0.6906205843293363,0.0011033911447063,0.8774352278416480,0.9559004883415241,0.1199135056719027,-0.0251428060215813,0.6999415436648406,4.0000000000000000,0.0000000000000000,0.1749853859162102,0.0000000000000000
0.7899091905180042,0.0129398380413374,0.8713122675975354,0.9462675185936116,0.1173877392903602,-0.0253767566366487,0.7999331872858211,4.0000000000000000,0.0000000000000000,0.1999832968214553,0.0000000000000000
0.8892275103093725,0.0245243034697202,0.8755860416914842,0.9267047101020556,0.1148385104191543,-0.0256120961951830,0.8999248293637563,4.0000000000000000,0.0000000000000000,0.2249812073409391,0.0000000000000000
0.9885751708185917,0.0358543749333463,0.8858405592706646,0.9141594407293354,0.1122656780697808,-0.0258488668621573,0.9999164698544790,4.0000000000000000,0.0000000000000000,0.2499791174636198,0.0000000000000000
1.0879517825947937,0.0469276253566360,0.8956106297240818,0.9096474432378566,0.1096690983353921,-0.0260870848426655,1.0999081087202105,4.0000000000000000,0.0000000000000000,0.2749770271800527,0.0000000000000000
1.1873569393255223,0.0577416129285380,0.8937975637713571,0.9564145403603962,0.1070486253710987,-0.0263267726928848,1.1998997459298590,4.0000000000000000,0.0000000000000000,0.2999749364824648,0.0000000000000000
1.2867902175344945,0.0682938809533569,0.8846389787381742,0.9481640043782410,0.1044041111924756,-0.0265679506481554,1.2998913814592896,4.0000000000000000,0.0000000000000000,0.3249728453648225,0.0000000000000000
1.3862511762726708,0.0785819577090146,0.8822062711572902,0.9250681195763386,0.1017354057922177,-0.0268106389310120,1.3998830152915633,4.0000000000000000,0.0000000000000000,0.3499707538228909,0.0000000000000000
1.4857393568026103,0.0886033563129683,0.8876699937820420,0.9172157556373680,0.0990423571731518,-0.0270548571162625,1.4998746474171425,4.0000000000000000,0.0000000000000000,0.3749686618542857,0.0000000000000000
1.5852542822761015,0.0983555745960116,0.8855952310170021,0.9699780662208661,0.0963248114053457,-0.0273006242839611,1.5998662778340662,4.0000000000000000,0.0000000000000000,0.3999665694585166,0.0000000000000000
1.6847954574050532,0.1078360949841984,0.9041676315425939,0.9891186728813195,0.0935826126785460,-0.0275479589598341,1.6998579065480914,4.0000000000000000,0.0000000000000000,0.4249644766370229,0.0000000000000000
1.7843623681256366,0.1170423843891383,0.9168006464864719,0.9831601172243397,0.0908156033577416,-0.0277968791123774,1.7998495335727986,4.0000000000000000,0.0000000000000000,0.4499623833931997,0.0000000000000000
1.8839544812556868,0.1259718941069198,0.9244686500946034,0.9725794347763876,0.0880236240398662,-0.0280474021329876,1.8998411589296686,4.0000000000000000,0.0000000000000000,0.4749602897324172,0.0000000000000000
1.9835712441453519,0.1346220597259319,0.9113994872446617,0.9424621318777067,0.0852065136122668,-0.0282995448204929,1.9998327826481188,4.0000000000000000,0.0000000000000000,0.4999581956620297,0.0000000000000000
2.0832120843210147,0.1429903010438601,0.9014410731792765,0.9154820842100915,0.0823641093128624,-0.0285533233628850,2.0998244047655095,4.0000000000000000,0.0000000000000000,0.5249561011913774,0.0000000000000000
2.1828764091224890,0.1510740219941457,0.9016874266706542,0.9009287260338408,0.0794962467921152,-0.0288087533192981,2.1998160253271140,4.0000000000000000,0.0000000000000000,0.5499540063317785,0.0000000000000000
2.2825636053335185,0.1588706105822061,0.8867390925580659,0.9471043952218996,0.0766027601768824,-0.0290658496004707,2.2998076443860520,4.0000000000000000,0.0000000000000000,0.5749519110965130,0.0000000000000000
2.3822730388056073,0.1663774388317239,0.9084997700182971,0.9758274840401741,0.0736834821362276,-0.0293246264490808,2.3997992620031936,4.0000000000000000,0.0000000000000000,0.5999498155007984,0.0000000000000000
2.4820040540752113,0.1735918627413237,0.9232230260754467,0.9761321651679616,0.0707382439492639,-0.0295850974188215,2.4997908782470240,4.0000000000000000,0.0000000000000000,0.6249477195617560,0.0000000000000000
2.5817559739743405,0.1805112222519628,0.9304071940239632,0.9695928059760369,0.0677668755751288,-0.0298472753526671,2.5997824931934770,4.0000000000000000,0.0000000000000000,0.6499456232983692,0.0000000000000000
2.6815280992346171,0.1871328412253768,0.9369830627153898,0.9628638598095755,0.0647692057251483,-0.0301111723608914,2.6997741069257364,4.0000000000000000,0.0000000000000000,0.6749435267314341,0.0000000000000000
2.7813197080848484,0.1934540274339255,0.9407244071915613,0.9538984812781094,0.0617450619372766,-0.0303767997975005,2.7997657195339984,4.0000000000000000,0.0000000000000000,0.6999414298834996,0.0000000000000000
2.8811300558421942,0.1994720725621994,0.9274404187164093,0.9280267801975433,0.0586942706529097,-0.0306441682363810,2.8997573311152118,4.0000000000000000,0.0000000000000000,0.7249393327788030,0.0000000000000000
2.9809583744969856,0.2051842522207535,0.9146176728825594,0.9042080098546417,0.0556166572961301,-0.0309132874465391,2.9997489417727774,4.0000000000000000,0.0000000000000000,0.7499372354431943,0.0000000000000000
3.0808038722913031,0.2105878259723473,0.9120292621072206,0.8907935144274326,0.0525120463554745,-0.0311841663664262,3.0997405516162235,4.0000000000000000,0.0000000000000000,0.7749351379040559,0.0000000000000000
3.1806657332913981,0.2156800373710788,0.9157467120705383,0.8842532879294618,0.0493802614683159,-0.0314568130773081,3.1997321607608495,4.0000000000000000,0.0000000000000000,0.7999330401902124,0.0000000000000000
3.2805431169540733,0.2204581140148101,0.9204788477824121,0.8795211522175880,0.0462211255079241,-0.0317312347764215,3.2997237693273416,4.0000000000000000,0.0000000000000000,0.8249309423318354,0.0000000000000000
3.3804351576871392,0.2249192676112905,0.9249153913786861,0.8750846086213140,0.0430344606732938,-0.0320074377484036,3.3997153774413622,4.0000000000000000,0.0000000000000000,0.8499288443603406,0.0000000000000000
3.4803409644040806,0.2290606940583963,0.9290826585253928,0.8709173414746072,0.0398200885818345,-0.0322854273367037,3.4997069852331144,4.0000000000000000,0.0000000000000000,0.8749267463082786,0.0000000000000000
3.5802596200730759,0.2328795735389106,0.9329267577423631,0.8670732422576369,0.0365778303649806,-0.0325652079137823,3.5996985928368823,4.0000000000000000,0.0000000000000000,0.8999246482092206,0.0000000000000000
3.6801901812605284,0.2363730706302793,0.9363912976263904,0.8636087023736096,0.0333075067668149,-0.0328467828506289,3.6996902003905494,4.0000000000000000,0.0000000000000000,0.9249225500976374,0.0000000000000000
3.7801316776692806,0.2395383344297869,0.9396875307143473,0.8666082714074151,0.0300089382458115,-0.0331301544849174,3.7996818080350967,4.0000000000000000,0.0000000000000000,0.9499204520087742,0.0000000000000000
3.8800831116716914,0.2423724986956050,0.9424453976807741,0.9325680484963629,0.0266819450796718,-0.0334153240909763,3.8996734159140778,4.0000000000000000,0.0000000000000000,0.9749183539785194,0.0000000000000000
3.9800434578377941,0.2448726820041727,0.9448183861710422,0.9551816138289579,0.0233263474736856,-0.0337022918393691,3.9996650241730887,4.0000000000000000,0.0000000000000000,0.9999162560432722,0.0000000000000000
4.0800116624587268,0.2470359879243801,0.9470234996287912,0.9529765003712090,0.0199419656714215,-0.0339910567907126,4.0996566329592117,4.0000000000000000,0.0000000000000000,1.0249141582398029,0.0000000000000000
4.1799866430656847,0.2488595052090289,0.9488373246996609,0.9511626753003393,0.0165286200726018,-0.0342816167582030,4.1996482424204507,4.0000000000000000,0.0000000000000000,1.0499120606051127,0.0000000000000000
4.2799672879446371,0.2503403080040559,0.9503449473908256,0.9496550526091745,0.0130861313403416,-0.0345739686578728,4.2996398527051589,4.0000000000000000,0.0000000000000000,1.0749099631762897,0.0000000000000000
4.3799524556470759,0.2514754560760084,0.9515075982648552,0.9484924017351449,0.0096143205646622,-0.0348681070325821,4.3996314639614544,4.0000000000000000,0.0000000000000000,1.0999078659903636,0.0000000000000000
4.4799409744970813,0.2522619950582705,0.9523059746327177,0.9476940253672824,0.0061130092329178,-0.0351640293908171,4.4996230763366354,4.0000000000000000,0.0000000000000000,1.1249057690841588,0.0000000000000000
4.5799316420949987,0.2526969567165416,0.9527904557065460,0.9472095442934542,0.0025820199381688,-0.0354617161053097,4.5996146899765868,4.0000000000000000,0.0000000000000000,1.1499036724941467,0.0000000000000000
4.6799232248180633,0.2527773592340766,0.9528396624345690,0.9471603375654312,-0.0009788256492373,-0.0357612052632038,4.6996063050251911,4.0000000000000000,0.0000000000000000,1.1749015762562978,0.0000000000000000
4.7799144573183012,0.2525002075172023,0.9525268806980107,0.9474731193019894,-0.0045696985769819,-0.0360623131083533,4.7995979216237377,4.0000000000000000,0.0000000000000000,1.1998994804059344,0.0000000000000000
4.8799040420180742,0.2518624935216243,0.9518852055567439,0.9481147944432562,-0.0081907925827791,-0.0363656772919637,4.8995895399103384,4.0000000000000000,0.0000000000000000,1.2248973849775846,0.0000000000000000
4.9798906486036607,0.2508611966000500,0.9508922004168955,0.9491077995831046,-0.0118422115556163,-0.0366688628530738,4.9995811600193560,4.0000000000000000,0.0000000000000000,1.2498952900048390,0.0000000000000000
5.0798729135172529,0.2494932838716486,0.9494796126642858,0.9505203873357143,-0.0155243888842818,-0.0369808958953398,5.0995727820808279,4.0000000000000000,0.0000000000000000,1.2748931955202070,0.0000000000000000
5.1798494394478336,0.2477557106138758,0.9475263627934903,0.9524736372065098,-0.0192365215997152,-0.0372680192450527,5.1995644062199240,4.0000000000000000,0.0000000000000000,1.2998911015549810,0.0000000000000000
5.2798187889057671,0.2456451634667882,0.9456422212789360,0.9543577787210641,-0.0229901328528834,-0.0378105377622802,5.2995560320708046,4.0000000000000000,0.0000000000000000,1.3248890080177012,0.0000000000000000
5.3797794642997614,0.2431575194090376,0.9431501937038752,0.9568498062961249,-0.0267726409289077,-0.0378460057576051,5.3995476567109790,4.0000000000000000,0.0000000000000000,1.3498869141777448,0.0000000000000000
5.4797299895726601,0.2402910295800138,0.9402667067664074,0.9597332932335927,-0.0305762625066874,-0.0382328454873720,5.4995392776912801,4.0000000000000000,0.0000000000000000,1.3748848194228200,0.0000000000000000
5.5796688273964987,0.2370426080684481,0.9369410377670275,0.9616416846638388,-0.0344139607999647,-0.0385276024055561,5.5995308950794209,4.0000000000000000,0.0000000000000000,1.3998827237698552,0.0000000000000000
5.6795944041722368,0.2334091594051461,0.9334281410416480,0.8907475586920256,-0.0382824675026547,-0.0388490686253768,5.6995225089435486,4.0000000000000000,0.0000000000000000,1.4248806272358872,0.0000000000000000
5.7795051095239840,0.2293875790965533,0.9294338618934208,0.8705661381065792,-0.0421828603357255,-0.0391653826189408,5.7995141193519331,4.0000000000000000,0.0000000000000000,1.4498785298379833,0.0000000000000000
5.8793992957956780,0.2249747541842544,0.9251137917615715,0.8748862082384286,-0.0461150492239537,-0.0394850468897766,5.8995057263726753,4.0000000000000000,0.0000000000000000,1.4748764315931688,0.0000000000000000
5.9792752775508182,0.2201675638309150,0.9201803142009594,0.8798196857990407,-0.0500792534251699,-0.0398057465302795,5.9994973300734182,4.0000000000000000,0.0000000000000000,1.4998743325183546,0.0000000000000000
6.0791313310759358,0.2149628799331684,0.9149821036954657,0.8850178963045343,-0.0540756055164195,-0.0401280625449835,6.0994889305210886,4.0000000000000000,0.0000000000000000,1.5248722326302722,0.0000000000000000
6.1789656938884594,0.2093575677619423,0.9094671815954307,0.8906815836405103,-0.0581042572519095,-0.0404517975511928,6.1994805277816560,4.0000000000000000,0.0000000000000000,1.5498701319454140,0.0000000000000000
6.2787765642496929,0.2033484866307100,0.9049827375630791,0.8982806963589187,-0.0621653509493216,-0.0407769601708236,6.2994721219199068,4.0000000000000000,0.0000000000000000,1.5748680304799767,0.0000000000000000
6.3785621006836397,0.1969324905921408,0.9075935729469827,0.9138179865433158,-0.0662590268988414,-0.0411035012336273,6.3994637129992444,4.0000000000000000,0.0000000000000000,1.5998659282498111,0.0000000000000000
6.4783204215024446,0.1901064291636063,0.9192074346171868,0.9339861302916563,-0.0703854211154058,-0.0414313843968793,6.4994553010815110,4.0000000000000000,0.0000000000000000,1.6248638252703778,0.0000000000000000
6.5780496043392418,0.1828671480819947,0.9288634697129792,0.8884417714837408,-0.0745446656725968,-0.0417605671707480,6.5994468862268318,4.0000000000000000,0.0000000000000000,1.6498617215567080,0.0000000000000000
6.6777476856892379,0.1752114900882591,0.9253572621409912,0.8746427378590088,-0.0787368883394104,-0.0420910059468147,6.6994384684934785,4.0000000000000000,0.0000000000000000,1.6748596171233696,0.0000000000000000
6.7774126604598841,0.1671362957421142,0.9173011941409558,0.8829306793821713,-0.0829622123983089,-0.0424226545962859,6.7994300479377578,4.0000000000000000,0.0000000000000000,1.6998575119844395,0.0000000000000000
6.8770424815310305,0.1586384042672758,0.9131699799869506,0.8957916714976836,-0.0872207564093281,-0.0427554647925155,6.8994216246139297,4.0000000000000000,0.0000000000000000,1.7248554061534824,0.0000000000000000
6.9766350593259592,0.1497146544276113,0.9180681860339296,0.9167652484646285,-0.0915126339833037,-0.0430893858709451,6.9994131985741381,4.0000000000000000,0.0000000000000000,1.7498532996435345,0.0000000000000000
7.0761882613942619,0.1403618854345547,0.9333632932345086,0.8776580907459903,-0.0958379535474119,-0.0434243648154029,7.0994047698683715,4.0000000000000000,0.0000000000000000,1.7748511924670929,0.0000000000000000
7.1756999120075191,0.1305769378861047,0.9316947041134133,0.8704671162090722,-0.1001968181076343,-0.0437603462102618,7.1993963385444397,4.0000000000000000,0.0000000000000000,1.7998490846361099,0.0000000000000000
7.2751677917687951,0.1203566547377052,0.9299565661396885,0.8889107871362403,-0.1045893250070025,-0.0440972722038432,7.2993879046479719,4.0000000000000000,0.0000000000000000,1.8248469761619930,0.0000000000000000
7.3745896372369835,0.1096978823052735,0.9380859312845887,0.9184759300756731,-0.1090155656800680,-0.0444350824695246,7.3993794682224392,4.0000000000000000,0.0000000000000000,1.8498448670556098,0.0000000000000000
7.4739631405670632,0.0985974713006099,0.9434609061291533,0.9464232797747393,-0.1134756254036349,-0.0447737141698151,7.4993710293091924,4.0000000000000000,0.0000000000000000,1.8748427573272981,0.0000000000000000
7.5732859491673468,0.0870522778993920,0.9371503649868486,0.8933628131604844,-0.1179695830438676,-0.0451131019198113,7.5993625879475095,4.0000000000000000,0.0000000000000000,1.8998406469868774,0.0000000000000000
7.6725556653748610,0.0750591648419180,0.9292340674225792,0.8789182168996712,-0.1224975107999335,-0.0454531777543706,7.6993541441746718,4.0000000000000000,0.0000000000000000,1.9248385360436679,0.0000000000000000
7.7717698461499891,0.0626150025667244,0.9299798377633225,0.9044912261789275,-0.1270594739443396,-0.0457938710948273,7.7993456980260403,4.0000000000000000,0.0000000000000000,1.9498364245065101,0.0000000000000000
7.8709260027915517,0.0497166703771665,0.9401618550724672,0.9388106554760561,-0.1316555305601275,-0.0461351087194190,7.8993372495351464,4.0000000000000000,0.0000000000000000,1.9748343123837866,0.0000000000000000
7.9700216006735269,0.0363610576410006,0.9372170675495822,0.8990608263962533,-0.1362857312750672,-0.0464768147328008,7.9993287987337887,4.0000000000000000,0.0000000000000000,1.9998321996834472,0.0000000000000000
8.0690540590046442,0.0225450650229704,0.9317832944535737,0.8864334265579727,-0.1409501189930984,-0.0468189105414867,8.0993203456521456,4.0000000000000000,0.0000000000000000,2.0248300864130364,0.0000000000000000
8.1680207506120670,0.0082656057503418,0.9345495260671304,0.9177479671096425,-0.1456487286232455,-0.0471613148278771,8.1993118903188691,4.0000000000000000,0.0000000000000000,2.0498279725797173,0.0000000000000000
8.2669190017504661,-0.0064803930887129,0.9283115966801974,0.9379606600377765,-0.1503815868061065,-0.0475039435276717,8.2993034327611941,4.0000000000000000,0.0000000000000000,2.0748258581902985,0.0000000000000000
8.3657460919377602,-0.0216959892140337,0.9262312924112543,0.9070214565548451,-0.1551487116383292,-0.0478467098122214,8.3992949730050395,4.0000000000000000,0.0000000000000000,2.0998237432512599,0.0000000000000000
8.4644992538188326,-0.0373842237899116,0.9288771624872223,0.9035866178638668,-0.1599501123952267,-0.0481895240689625,8.4992865110751037,4.0000000000000000,0.0000000000000000,2.1248216277687759,0.0000000000000000
8.5631756730585433,-0.0535481200293042,0.9347244483158406,0.9404796853353645,-0.1647857892517850,-0.0485322938887956,8.5992780469949448,4.0000000000000000,0.0000000000000000,2.1498195117487362,0.0000000000000000
8.6617724882653846,-0.0701906817661651,0.9328103051240392,0.9130894911837688,-0.1696557330024731,-0.0488749240548153,8.6992695807870479,4.0000000000000000,0.0000000000000000,2.1748173951967620,0.0000000000000000
8.7602867909471467,-0.0873148919962783,0.9281903695461899,0.9022818424643348,-0.1745599247800145,-0.0492173165327725,8.7992611124728803,4.0000000000000000,0.0000000000000000,2.1998152781182201,0.0000000000000000
8.8587156254999382,-0.1049237113870460,0.9329533606921850,0.9430980436884524,-0.1794983357735300,-0.0495593704680673,8.8992526420729288,4.0000000000000000,0.0000000000000000,2.2248131605182322,0.0000000000000000
8.9570559892319341,-0.1230200767567608,0.9294820114370391,0.9184347646854069,-0.1844709269464309,-0.0499009821837952,8.9992441696066923,4.0000000000000000,0.0000000000000000,2.2498110424016731,0.0000000000000000
9.0553048324232694,-0.1416068995239608,0.9230446048317323,0.9073794356844500,-0.1894776487542893,-0.0502420451822628,9.0992356950926805,4.0000000000000000,0.0000000000000000,2.2748089237731701,0.0000000000000000
9.1534590584234188,-0.1606870641275226,0.9177525809896928,0.9393864901548408,-0.1945184408631708,-0.0505824501527361,9.1992272185483586,4.0000000000000000,0.0000000000000000,2.2998068046370896,0.0000000000000000
9.2515155237874733,-0.1802634264182439,0.9186781486505226,0.9256368599224640,-0.1995932318688096,-0.0509220849805730,9.2992187399900761,4.0000000000000000,0.0000000000000000,2.3248046849975190,0.0000000000000000
