# x_m,y_m,w_tr_right_m,w_tr_left_m,psi,kappa,s,velocity,acceleration,time,n
0.0635663148874523,-0.6329581637766887,-0.0122114757547702,1.1603656449817106,0.1415935481062365,-0.0271824639433378,0.0000000000000000,4.0000000000000000,0.0000000000000000,0.0000000000000000,0.0000000000000000
0.1625587175084660,-0.6189845709448645,-0.0186775389684420,1.1302370525514100,0.1388668612768660,-0.0273655900985103,0.0999737819296164,4.0000000000000000,0.0000000000000000,0.0249934454824041,0.0000000000000000
0.2615889898344083,-0.6052818590042675,-0.0478269005888608,1.1533299908742976,0.1361217785523343,-0.0275504740874016,0.1999475742527911,4.0000000000000000,0.0000000000000000,0.0499868935631978,0.0000000000000000
0.3606566228198488,-0.5918519623819772,-0.0267378373292173,1.1663017700670173,0.1333581689848538,-0.0277362272476300,0.2999213609602243,4.0000000000000000,0.0000000000000000,0.0749803402400561,0.0000000000000000
0.4597611287291478,-0.5786968216137008,-0.0280085017119526,1.1404856005329527,0.1305759198664811,-0.0279233555179805,0.3998951616289967,4.0000000000000000,0.0000000000000000,0.0999737904072492,0.0000000000000000
0.5589019744778946,-0.5658183938840734,-0.0278505114674626,1.1151619060791238,0.1277749042213983,-0.0281116554305339,0.4998689641802853,4.0000000000000000,0.0000000000000000,0.1249672410450713,0.0000000000000000
0.6580786290754608,-0.5532186461857783,-0.0197967014921123,1.1037804876922037,0.1249549998396253,-0.0283012260604313,0.5998427730465361,4.0000000000000000,0.0000000000000000,0.1499606932616340,0.0000000000000000
0.7572905409745945,-0.5408995585029991,-0.0284583232026045,1.1388256174540132,0.1221160816933069,-0.0284920280975009,0.6998165865379573,4.0000000000000000,0.0000000000000000,0.1749541466344893,0.0000000000000000
0.8565371459318019,-0.5288631226331606,-0.0339634528420220,1.1310019697250739,0.1192580255382572,-0.0286840840212475,0.7997904050305042,4.0000000000000000,0.0000000000000000,0.1999476012576261,0.0000000000000000
0.9558178640083952,-0.5171113425530481,-0.0292199096954763,1.1120274423382996,0.1163807062605833,-0.0288773891535684,0.8997642281886457,4.0000000000000000,0.0000000000000000,0.2249410570471614,0.0000000000000000
1.0551321002180645,-0.5056462342581817,-0.0192699403959049,1.0999410317092631,0.1134839986748666,-0.0290719494932884,0.9997380558743105,4.0000000000000000,0.0000000000000000,0.2499345139685776,0.0000000000000000
1.1544792439890508,-0.4944698257651115,-0.0106636367567870,1.1007687439348648,0.1105677772351057,-0.0292677663075391,1.0997118878617711,4.0000000000000000,0.0000000000000000,0.2749279719654428,0.0000000000000000
1.2538586689961762,-0.4835841570544172,-0.0128700751096618,1.1373497038384093,0.1076319162051864,-0.0294648421326904,1.1996857239291434,4.0000000000000000,0.0000000000000000,0.2999214309822859,0.0000000000000000
1.3532697328744023,-0.4729912800239476,-0.0204118136800070,1.1300555810710544,0.1046762896467430,-0.0296631784934614,1.2996595638333075,4.0000000000000000,0.0000000000000000,0.3249148909583269,0.0000000000000000
1.4527117769644737,-0.4626932584306198,-0.0218918238696128,1.1108780634307269,0.1017007714791496,-0.0298627767203381,1.3996334073202334,4.0000000000000000,0.0000000000000000,0.3499083518300584,0.0000000000000000
1.5521841260449782,-0.4526921678271129,-0.0181870829075940,1.1134326050314880,0.0987052355144973,-0.0300636376387587,1.4996072541245518,4.0000000000000000,0.0000000000000000,0.3749018135311379,0.0000000000000000
1.6516860880645934,-0.4429900954912943,-0.0154749315893871,1.1549950142160161,0.0956895555034878,-0.0302657616597259,1.5995811039722114,4.0000000000000000,0.0000000000000000,0.3998952759930529,0.0000000000000000
1.7512169538705016,-0.4335891403487626,0.0002647962076645,1.1713928813809085,0.0926536051793503,-0.0304691487293082,1.6995549565821093,4.0000000000000000,0.0000000000000000,0.4248887391455273,0.0000000000000000
1.8507759969342334,-0.4244914128881253,0.0120422282366251,1.1661768257276277,0.0895972583043907,-0.0306737983263228,1.7995288116678969,4.0000000000000000,0.0000000000000000,0.4498822029169742,0.0000000000000000
1.9503624730746623,-0.4156990350688519,0.0146889896908019,1.1503841750236794,0.0865203887176000,-0.0308797094435533,1.8995026689396108,4.0000000000000000,0.0000000000000000,0.4748756672349027,0.0000000000000000
2.0499756201783197,-0.4072141402214741,0.0042134912714356,1.1227390259595020,0.0834228703839244,-0.0310868805733015,1.9994765281052245,4.0000000000000000,0.0000000000000000,0.4998691320263061,0.0000000000000000
2.1496146579170894,-0.3990388729399167,-0.0035551626479903,1.1002945455304167,0.0803045774450215,-0.0312953096921301,2.0994503888720915,4.0000000000000000,0.0000000000000000,0.5248625972180229,0.0000000000000000
2.2492787874633744,-0.3911753889657391,-0.0083856143058249,1.1031797103951453,0.0771653842715960,-0.0315049942445719,2.1994242509482902,4.0000000000000000,0.0000000000000000,0.5498560627370725,0.0000000000000000
2.3489671912028243,-0.3836258550640602,-0.0107782902928291,1.1384263078489407,0.0740051655173752,-0.0317159311266605,2.2993981140438620,4.0000000000000000,0.0000000000000000,0.5748495285109655,0.0000000000000000
2.4486790324447361,-0.3763924488909376,0.0053736952910563,1.1595060010061469,0.0708237961746889,-0.0319281166702939,2.3993719778719527,4.0000000000000000,0.0000000000000000,0.5998429944679882,0.0000000000000000
2.5484134551302211,-0.3694773588519716,0.0181198703170758,1.1600660476293230,0.0676211516317273,-0.0321415466254070,2.4993458421498427,4.0000000000000000,0.0000000000000000,0.6248364605374607,0.0000000000000000
2.6481695835382735,-0.3628827839518962,0.0256191446469775,1.1540645833936813,0.0643971077315253,-0.0323562161432530,2.5993197065998905,4.0000000000000000,0.0000000000000000,0.6498299266499726,0.0000000000000000
2.7479465219898445,-0.3566109336349201,0.0303302127743641,1.1459684239874108,0.0611515408326553,-0.0325721197590131,2.6992935709503652,4.0000000000000000,0.0000000000000000,0.6748233927375913,0.0000000000000000
2.8477433545500737,-0.3506640276155777,0.0275237036510385,1.1308630302083296,0.0578843278716905,-0.0327892513737943,2.7992674349361955,4.0000000000000000,0.0000000000000000,0.6998168587340489,0.0000000000000000
2.9475591447287939,-0.3450442956998468,0.0163264419461546,1.1077231737767972,0.0545953464274533,-0.0330076042369803,2.8992412982996116,4.0000000000000000,0.0000000000000000,0.7248103245749029,0.0000000000000000
3.0473929351794831,-0.3397539775962872,0.0073250811976538,1.0882380774744955,0.0512844747871113,-0.0332271709269482,2.9992151607907096,4.0000000000000000,0.0000000000000000,0.7498037901976774,0.0000000000000000
3.1472437473968013,-0.3347953227169509,0.0059924692422384,1.0771306733114394,0.0479515920140841,-0.0334479433341673,3.0991890221679244,4.0000000000000000,0.0000000000000000,0.7747972555419811,0.0000000000000000
3.2471105814128856,-0.3301705899678188,0.0093387108314778,1.0709272316129741,0.0445965780178696,-0.0336699126397480,3.1991628821984195,4.0000000000000000,0.0000000000000000,0.7997907205496049,0.0000000000000000
3.3469924154925699,-0.3258820475285082,0.0136036325940253,1.0663963674059747,0.0412193136256591,-0.0338930693011637,3.2991367406583958,4.0000000000000000,0.0000000000000000,0.8247841851645989,0.0000000000000000
3.4468882058277290,-0.3219319726210073,0.0176117422728009,1.0623882577271992,0.0378196806561457,-0.0341174030226734,3.3991105973333333,4.0000000000000000,0.0000000000000000,0.8497776493333333,0.0000000000000000
3.5467968862309216,-0.3183226512671552,0.0213023232192198,1.0586976767807803,0.0343975619948935,-0.0343429027537051,3.4990844520181592,4.0000000000000000,0.0000000000000000,0.8747711130045398,0.0000000000000000
3.6467173678285429,-0.3150563780346783,0.0246427035292394,1.0558522217696038,0.0309528416718892,-0.0345695566468856,3.5990583045173490,4.0000000000000000,0.0000000000000000,0.8997645761293372,0.0000000000000000
3.7466485387536990,-0.3121354557714400,0.0276632783684717,1.0612351819672017,0.0274854049413000,-0.0347973520558695,3.6990321546449731,4.0000000000000000,0.0000000000000000,0.9247580386612433,0.0000000000000000
3.8465892638390202,-0.3095621953277186,0.0302996692436246,1.0932659376302678,0.0239951383627455,-0.0350262755072898,3.7990060022246825,4.0000000000000000,0.0000000000000000,0.9497515005561706,0.0000000000000000
3.9465383843096542,-0.3073389152662354,0.0324931435288020,1.1300380240693095,0.0204819298849688,-0.0352563126808270,3.8989798470896524,4.0000000000000000,0.0000000000000000,0.9747449617724131,0.0000000000000000
4.0464947174766701,-0.3054679415596742,0.0343348934270626,1.1436415968464004,0.0169456689314353,-0.0354874483905953,3.9989536890824762,4.0000000000000000,0.0000000000000000,0.9997384222706190,0.0000000000000000
4.1464570564311343,-0.3039516072754488,0.0358824507862980,1.1441175492137019,0.0133862464879531,-0.0357196665633673,4.0989275280550226,4.0000000000000000,0.0000000000000000,1.0247318820137556,0.0000000000000000
4.2464241697391181,-0.3027922522474641,0.0370872924051656,1.1429127075948342,0.0098035551923927,-0.0359529502183393,4.1989013638682602,4.0000000000000000,0.0000000000000000,1.0497253409670650,0.0000000000000000
4.3463948011379099,-0.3019922227346226,0.0379346141445653,1.1420653858554346,0.0061974894264658,-0.0361872814462461,4.2988751963920491,4.0000000000000000,0.0000000000000000,1.0747187990980123,0.0000000000000000
4.4463676692337257,-0.3015538710658308,0.0384123974426202,1.1415876025573799,0.0025679454095693,-0.0364226413888944,4.3988490255049166,4.0000000000000000,0.0000000000000000,1.0997122563762292,0.0000000000000000
4.5463414672012039,-0.3014795552712617,0.0386201705497595,1.1413798294502406,-0.0010851787052788,-0.0366590102178348,4.4988228510938146,4.0000000000000000,0.0000000000000000,1.1247057127734537,0.0000000000000000
4.6463148624849904,-0.3017716386996325,0.0387204086848656,1.1412795913151343,-0.0047619827334209,-0.0368963671140226,4.5987966730538528,4.0000000000000000,0.0000000000000000,1.1496991682634632,0.0000000000000000
4.7462864965037506,-0.3024324896212638,0.0381916740751771,1.1418083259248231,-0.0084625643584939,-0.0371346902472238,4.6987704912880366,4.0000000000000000,0.0000000000000000,1.1746926228220091,0.0000000000000000
4.8462549843569160,-0.3034644808166883,0.0366524456449713,1.1433475543550289,-0.0121870190302562,-0.0373739567544283,4.7987443057069932,4.0000000000000000,0.0000000000000000,1.1996860764267483,0.0000000000000000
4.9462189145345254,-0.3048699891505807,0.0350470400496510,1.1449529599503492,-0.0159354398603593,-0.0376141427203629,4.8987181162287028,4.0000000000000000,0.0000000000000000,1.2246795290571757,0.0000000000000000
5.0461768486305028,-0.3066513951307913,0.0331924442716978,1.1468075557283024,-0.0197079175161017,-0.0378552231565826,4.9986919227782289,4.0000000000000000,0.0000000000000000,1.2496729806945572,0.0000000000000000
5.1461273210597414,-0.3088110824522691,0.0309175547361860,1.1490824452638140,-0.0235045401120932,-0.0380971719806056,5.0986657252874590,4.0000000000000000,0.0000000000000000,1.2746664313218647,0.0000000000000000
5.2460688387793821,-0.3113514375256634,0.0283803910678132,1.1516196089321868,-0.0273253930999495,-0.0383399619973315,5.1986395236948626,4.0000000000000000,0.0000000000000000,1.2996598809237156,0.0000000000000000
5.3459998810146416,-0.3142748489904108,0.0254523603781761,1.1545476396218239,-0.0311705591559757,-0.0385835648774112,5.2986133179452430,4.0000000000000000,0.0000000000000000,1.3246533294863108,0.0000000000000000
5.4459188989896390,-0.3175837072121112,0.0221042014741522,1.1576798789384424,-0.0350401180668685,-0.0388279511392351,5.3985871079895302,4.0000000000000000,0.0000000000000000,1.3496467769973826,0.0000000000000000
5.5458243156635971,-0.3212804037640133,0.0183862457207175,1.1502079824204032,-0.0389341466135140,-0.0390730901288056,5.4985608937845774,4.0000000000000000,0.0000000000000000,1.3746402234461443,0.0000000000000000
5.6457145254728438,-0.3253673308924378,0.0141936178579453,1.1060052888662115,-0.0428527184528626,-0.0393189500014198,5.5985346752929726,4.0000000000000000,0.0000000000000000,1.3996336688232431,0.0000000000000000
5.7455878940790752,-0.3298468809659754,0.0096697797333106,1.0775126880034467,-0.0467959039979606,-0.0395654977030690,5.6985084524828808,4.0000000000000000,0.0000000000000000,1.4246271131207202,0.0000000000000000
5.8454427581243049,-0.3347214459083115,0.0047363839948901,1.0755366025364044,-0.0507637702961445,-0.0398126989523046,5.7984822253279047,4.0000000000000000,0.0000000000000000,1.4496205563319762,0.0000000000000000
5.9452774249929679,-0.3399934166145365,-0.0007606838388908,1.0807609923194983,-0.0547563809055018,-0.0400605182236121,5.8984559938069623,4.0000000000000000,0.0000000000000000,1.4746139984517406,0.0000000000000000
6.0450901725816415,-0.3456651823508214,-0.0066541088663795,1.0866996232506467,-0.0587737957696042,-0.0403089187295549,5.9984297579041872,4.0000000000000000,0.0000000000000000,1.4996074394760468,0.0000000000000000
6.1448792490768627,-0.3517391301373422,-0.0124691027211020,1.0933663800577722,-0.0628160710905870,-0.0405578624054532,6.0984035176088343,4.0000000000000000,0.0000000000000000,1.5246008794022086,0.0000000000000000
6.2446428727415659,-0.3582176441143621,-0.0161568807309203,1.1027720605239779,-0.0668832592006601,-0.0408073098933467,6.1983772729152298,4.0000000000000000,0.0000000000000000,1.5495943182288074,0.0000000000000000
6.3443792317105920,-0.3651031048913859,-0.0133740881160402,1.1172381973811303,-0.0709754084320919,-0.0410572205274707,6.2983510238227076,4.0000000000000000,0.0000000000000000,1.5745877559556769,0.0000000000000000
6.4440864837958189,-0.3723978888793256,-0.0044855335348314,1.1226551195256398,-0.0750925629857722,-0.0413075523203394,6.3983247703355683,4.0000000000000000,0.0000000000000000,1.5995811925838921,0.0000000000000000
6.5437627563014242,-0.3801043676056293,0.0018251155062184,1.0983512897691201,-0.0792347627984133,-0.0415582619494362,6.4982985124630419,4.0000000000000000,0.0000000000000000,1.6245746281157605,0.0000000000000000
6.6434061458498164,-0.3882249070123445,-0.0010499146241265,1.0846485744724539,-0.0834020434084817,-0.0418093047450559,6.5982722502192575,4.0000000000000000,0.0000000000000000,1.6495680625548144,0.0000000000000000
6.7430147182187765,-0.3967618667371056,-0.0072443743856933,1.0907224215703231,-0.0875944358209710,-0.0420606346793896,6.6982459836232096,4.0000000000000000,0.0000000000000000,1.6745614959058024,0.0000000000000000
6.8425865081903545,-0.4057175993770593,-0.0094517286471099,1.1034716675504388,-0.0918119663711183,-0.0423122043561950,6.7982197126987138,4.0000000000000000,0.0000000000000000,1.6995549281746785,0.0000000000000000
6.9421195194120813,-0.4150944497357569,-0.0038114118008307,1.1065415806836307,-0.0960546565871239,-0.0425639650012988,6.8981934374743457,4.0000000000000000,0.0000000000000000,1.7245483593685864,0.0000000000000000
7.0416117242710792,-0.4248947540530680,0.0041407923656208,1.0888329562745487,-0.1003225230520650,-0.0428158664559211,6.9981671579833709,4.0000000000000000,0.0000000000000000,1.7495417894958427,0.0000000000000000
7.1410610637816294,-0.4351208392181968,0.0054687429019247,1.0856546572210477,-0.1046155772650768,-0.0430678571687275,7.0981408742636471,4.0000000000000000,0.0000000000000000,1.7745352185659118,0.0000000000000000
7.2404654474867671,-0.4457750219658946,0.0067908297230509,1.1046058929935354,-0.1089338255018999,-0.0433198841911753,7.1981145863574749,4.0000000000000000,0.0000000000000000,1.7995286465893687,0.0000000000000000
7.3398227533745342,-0.4568596080560026,0.0115747621643352,1.1280602328728546,-0.1132772686750376,-0.0435718931743342,7.2980882943114382,4.0000000000000000,0.0000000000000000,1.8245220735778596,0.0000000000000000
7.4391308278094233,-0.4683768914364733,0.0125647509030731,1.1281608773368976,-0.1176459021935226,-0.0438238283643569,7.3980619981761624,4.0000000000000000,0.0000000000000000,1.8495154995440406,0.0000000000000000
7.5383874854796709,-0.4803291533900486,0.0074484415419309,1.1040940654983140,-0.1220397158225537,-0.0440756326044299,7.4980356980060456,4.0000000000000000,0.0000000000000000,1.8745089245015114,0.0000000000000000
7.6375905093609546,-0.4927186616648069,0.0036274385598384,1.1015186034518440,-0.1264586935431140,-0.0443272473325137,7.5980093938589093,4.0000000000000000,0.0000000000000000,1.8995023484647273,0.0000000000000000
7.7367376506971191,-0.5055476695888078,0.0062691160304127,1.1207098945353318,-0.1309028134117165,-0.0445786125862486,7.6979830857955758,4.0000000000000000,0.0000000000000000,1.9244957714488939,0.0000000000000000
7.8358266289985394,-0.5188184151691081,0.0091089825560161,1.1237351709359029,-0.1353720474204922,-0.0448296670049710,7.7979567738793731,4.0000000000000000,0.0000000000000000,1.9494891934698433,0.0000000000000000
7.9348551320587291,-0.5325331201754387,0.0069785410491730,1.1086768447428508,-0.1398663613577402,-0.0450803478369946,7.8979304581755549,4.0000000000000000,0.0000000000000000,1.9744826145438887,0.0000000000000000
8.0338208159897810,-0.5466939892088745,0.0047296157171441,1.1131515278778936,-0.1443857146692171,-0.0453305909472992,7.9979041387506093,4.0000000000000000,0.0000000000000000,1.9994760346876523,0.0000000000000000
8.1327213052772827,-0.5613032087558583,0.0023917960202591,1.1302735714056820,-0.1489300603201951,-0.0455803308252528,8.0978778156714828,4.0000000000000000,0.0000000000000000,2.0244694539178707,0.0000000000000000
8.2315541928552989,-0.5763629462279678,-0.0008825880026534,1.1287395983164679,-0.1534993446586961,-0.0458295006005614,8.1978514890047034,4.0000000000000000,0.0000000000000000,2.0494628722511758,0.0000000000000000
8.3303170402019777,-0.5918753489878590,-0.0005063845482182,1.1206898981301354,-0.1580935072799232,-0.0460780320514194,8.2978251588153515,4.0000000000000000,0.0000000000000000,2.0744562897038379,0.0000000000000000
8.4290073774564895,-0.6078425433618460,0.0029525153719414,1.1300256302073217,-0.1627124808921974,-0.0463258556265533,8.3977988251659763,4.0000000000000000,0.0000000000000000,2.0994497062914941,0.0000000000000000
8.5276227035577428,-0.6242666336396141,0.0039663397927128,1.1295001439434291,-0.1673561911846004,-0.0465729004575251,8.4977724881153183,4.0000000000000000,0.0000000000000000,2.1244431220288296,0.0000000000000000
8.6261604864056203,-0.6411497010616047,0.0021451769237240,1.1220631698086643,-0.1720245566965097,-0.0468190943843306,8.5977461477169896,4.0000000000000000,0.0000000000000000,2.1494365369292474,0.0000000000000000
8.7246181630451769,-0.6584938027946388,0.0024315821394928,1.1333779927091852,-0.1767174886893357,-0.0470643639740911,8.6977198040179644,4.0000000000000000,0.0000000000000000,2.1744299510044911,0.0000000000000000
8.8229931398744537,-0.6763009708963910,0.0012900661805268,1.1322581188430518,-0.1814348910206809,-0.0473086345509270,8.7976934570569760,4.0000000000000000,0.0000000000000000,2.1994233642642440,0.0000000000000000
8.9212827928764593,-0.6945732112693624,-0.0033979138151764,1.1249769524192692,-0.1861766600206634,-0.0475518302094929,8.8976671068628246,4.0000000000000000,0.0000000000000000,2.2244167767157061,0.0000000000000000
9.0194844678758006,-0.7133125026050275,-0.0082780506386125,1.1355501289405836,-0.1909426843730793,-0.0477938738984858,8.9976407534525098,4.0000000000000000,0.0000000000000000,2.2494101883631274,0.0000000000000000
9.1175954808205848,-0.7325207953189028,-0.0087918386711455,1.1364196573436640,-0.1957328449925984,-0.0480346872578120,9.0976143968293197,4.0000000000000000,0.0000000000000000,2.2744035992073299,0.0000000000000000
9.2156131180900580,-0.7522000104772282,-0.0059934437118188,1.1319086672783096,-0.2005470149301127,-0.0482741913448809,9.1975880369808003,4.0000000000000000,0.0000000000000000,2.2993970092452001,0.0000000000000000
9.3135346368283827,-0.7723520387163370,-0.0046308139306426,1.1250823021304264,-0.2053850591965212,-0.0485123042765270,9.2975616738765829,4.0000000000000000,0.0000000000000000,2.3243904184691457,0.0000000000000000
