# x_m,y_m,w_tr_right_m,w_tr_left_m,psi,kappa,s,velocity,acceleration,time,n
-0.1416633523252398,-0.3599997407441746,0.6909505597065809,0.9853549017174402,-0.9111412651543289,0.2627826575533495,0.0000000000000000,2.5617526116914080,-2.6578169520907520,0.0000000000000000,0.0000000000000000
-0.2197501141358361,-0.2976796699483350,0.6917572848408766,1.0271287716491830,-0.8825116509211295,0.3103573701297517,0.0999066243752799,2.4559131506887995,-2.4732792505957057,0.0398219527192611,0.0000000000000000
-0.2958557236694980,-0.2329570374285836,0.6194107122252877,1.0804676017300026,-0.8486336916938431,0.3678715709506787,0.1998119944150179,2.3531514286678292,-2.2885458282394082,0.0813707272849392,0.0000000000000000
-0.3695213606178055,-0.1654731761267104,0.6724758930137307,1.1336085288942981,-0.8086051848886333,0.4335168465290820,0.2997154358132516,2.2538976103993877,-2.0893406123202038,0.1247405462519459,0.0000000000000000
-0.4401807683343225,-0.0948522412156072,0.6717199050374429,1.1920866036247877,-0.7614525574062192,0.5105504407693364,0.3996157278376860,2.1593061301134382,-1.8715663661002309,0.1700139113165851,0.0000000000000000
-0.5071289933876416,-0.0207106281811210,0.6884818747171593,1.2293589267781340,-0.7059646945587823,0.6004895103679445,0.4995108909895891,2.0709133512928730,-1.6270078590332480,0.2172432163637519,0.0000000000000000
-0.5694890999641059,0.0573194152697436,0.6656026378175712,1.1774724654820306,-0.6407773855953005,0.7049311452866859,0.5993981803369921,1.9908910816495142,-1.3596098168325341,0.2664269183348704,0.0000000000000000
-0.6261833651051578,0.1395451385485079,0.6762326103694083,1.0648335281257792,-0.5645605476320172,0.8215889053454843,0.6992746503817420,1.9214737158506041,-1.0395608144083806,0.3174837472423218,0.0000000000000000
-0.6759226348590899,0.2261410237200480,0.7009012915090705,0.9585186968027353,-0.4759949934516907,0.9527457557441614,0.7991387694851365,1.8666632237053709,-0.7866946974554043,0.3702084088355218,0.0000000000000000
-0.7172368330633858,0.3170479329014281,0.7218357508900063,0.8789101840858800,-0.3752453083289049,1.0657499176288021,0.8989933092426035,1.8240947115887456,0.0000000000000000,0.4243189961501622,0.0000000000000000
-0.7485101640109435,0.4118754950690492,0.7291922247380850,0.7355076894576589,-0.2583433378739559,1.2773036745870532,0.9988446376023680,1.8240947115887456,0.0000000000000000,0.4790592065818872,0.0000000000000000
-0.7678585360406992,0.5098214360946063,0.7328001123804126,0.6767863462186585,-0.1321088648704671,1.2538484256735083,1.0986833418386697,1.8240947115887456,0.0872247019686637,0.5337924962526546,0.0000000000000000
-0.7749547236787513,0.6093962544942263,0.7351838491434520,0.6601610413921636,-0.0117687610290573,1.1586651378725092,1.1985106944947015,1.8288620338925283,0.4186377390343879,0.5884481407683039,0.0000000000000000
-0.7706007241991126,0.7091425833217733,0.7307243009684249,0.5996632799927175,0.0965821250050816,1.0128292444034668,1.2983520057142655,1.8515752808341035,0.8691785631795929,0.6427032755155070,0.0000000000000000
-0.7561245838939855,0.8079439145011826,0.7186270634432599,0.5844717311227395,0.1927248303872555,0.9133971340695286,1.3982082107340690,1.8978716411294123,1.0729630248980266,0.6959677740392043,0.0000000000000000
-0.7326721666775022,0.9050191595896030,0.7058936973490963,0.6174977391094786,0.2800944267755554,0.8368229177319453,1.4980762190363921,1.9535163492431928,1.1807879905711380,0.7478285621768656,0.0000000000000000
-0.7011562943542869,0.9997926296255017,0.6968215992511558,0.6734386243797377,0.3611361202247383,0.7864081046240901,1.5979524465929964,2.0129807318613930,1.1885086331630088,0.7981884769905636,0.0000000000000000
-0.6622598451659893,1.0917893365501092,0.6466700193790387,0.7056803789072468,0.4384865232567039,0.7628107129915203,1.6978340156857472,2.0711136234321943,-0.2694426280022416,0.8471009459022035,0.0000000000000000
-0.6164565654021550,1.1805534959778357,0.6447513682363145,0.7316944755263547,0.5140597091818755,0.7506831190335634,1.7977190317594052,2.0580780059824186,-1.1328126127918505,0.8954808832062118,0.0000000000000000
-0.5640353220449510,1.2655802554930990,0.6563437334880327,0.7616955428791202,0.5918479446017398,0.8072062770219690,1.8976066515567636,2.0023429195750060,-1.1125275171495772,0.9446815063084315,0.0000000000000000
-0.5049813606570464,1.3461373753648400,0.6624151399121642,0.8030623487616966,0.6737343463534869,0.8328739811706625,1.9974906839024502,1.9460549063567782,-1.0559295837015596,0.9952762218103403,0.0000000000000000
-0.4393653370215301,1.4214299465882561,0.6936523058465225,0.8487209319160754,0.7614545797472811,0.9241804111081761,2.0973627712901171,1.8910880241908252,-0.6916191646163847,1.0473316647246933,0.0000000000000000
-0.3670568257936023,1.4902969273956268,0.7126136108676533,0.8967215364150957,0.8602880305794164,1.0561370907355629,2.1972185765370935,1.8542086015397345,-0.3414012905902314,1.1006549740513605,0.0000000000000000
-0.2879331019128721,1.5511882368650780,0.7011000671873114,0.9329372461641414,0.9713943664405186,1.1705123489929155,2.2970600270957595,1.8357335149399217,0.0000000000000000,1.1547704302872530,0.0000000000000000
-0.2022752137116861,1.6024783561288589,0.7215501102733911,0.9393753755911612,1.0926689830357097,1.2611584563228295,2.3968996492163375,1.8357335149399217,0.0000000000000000,1.2091572033717142,0.0000000000000000
-0.1110408233011691,1.6430342708354881,0.7183018987464551,0.9775794253645496,1.2092368810896350,1.0751208695425101,2.4967420060157943,1.8357335149399217,0.7006879530293660,1.2635454661489094,0.0000000000000000
-0.0158488658906907,1.6731773966973749,0.7162101570897852,1.0391402965220593,1.3202728465066214,1.1500869307796375,2.5965924781847525,1.8734581884258441,0.2384751079860769,1.3173849439404470,0.0000000000000000
0.0820786163163597,1.6927338525295761,0.7180650870587009,0.9404376767577987,1.4231091271033187,0.9108625256775681,2.6964536154511034,1.8861268183147857,1.1284098949044963,1.3705084334145821,0.0000000000000000
0.1814069216532587,1.7031093995600974,0.7233559651869922,0.8780489120499158,1.5084461884440150,0.7982170094204112,2.7963223503849295,1.9449576119155152,1.3752163276636589,1.4226444469911987,0.0000000000000000
0.2812621011170134,1.7054501378858817,0.7252508386516393,0.8747507373785176,1.5853322777429928,0.7418115479794447,2.8962049610919411,2.0143436912145889,1.3859269733723252,1.4730991121251948,0.0000000000000000
0.3810355616796731,1.7005951315188672,0.7218428307084025,0.8775607350360700,1.6505413817510377,0.5640035194999200,2.9960964748429717,2.0819378456075741,2.0177400673089441,1.5218709130148989,0.0000000000000000
0.4803620464988326,1.6899607963371379,0.7219291200232208,0.8313123344471051,1.7031104306679630,0.4885407388317876,3.0959906171701777,2.1765996462140755,2.1632016638603724,1.5687856777758284,0.0000000000000000
0.5790571952894751,1.6745074527469954,0.7296518159401584,0.8360445207911469,1.7477136322852564,0.4045172556429681,3.1958882558956354,2.2737157906195100,2.4127019992192182,1.6136803105915800,0.0000000000000000
0.6770455539560551,1.6550529339067772,0.7467996306590665,0.8285013443825908,1.7847274112631288,0.3365206967580564,3.2957891905132590,2.3773611138958510,2.6242765255150049,1.6566385057229647,0.0000000000000000
0.7743240435578271,1.6323021632186754,0.7690876298627041,0.8674058879289377,1.8153543872502536,0.2766310690135363,3.3956926544477226,2.4851950620234655,2.8404695039398025,1.6977294300517003,0.0000000000000000
0.8709348609614382,1.6068578112350334,0.7730285434718291,0.9182314012653232,1.8404269108878186,0.2253045762789543,3.4955979350251845,2.5968731778489831,3.0518495128577006,1.7370462104890954,0.0000000000000000
0.9669467391430688,1.5792344879420182,0.7871331182863254,0.9185653385154569,1.8607044873198675,0.1806313315054095,3.5955045351160431,2.7117430039494130,3.2654500330555134,1.7746856241025366,0.0000000000000000
1.0624425872234369,1.5498734442749325,0.7947301101022882,0.8923689855003117,1.8768137468866513,0.1418543341151994,3.6954121318532742,2.8294940624791503,3.4806982965411821,1.8107452965329109,0.0000000000000000
1.1575116958306759,1.5191562946132384,0.7986940286891454,0.8658014496052491,1.8892217937447402,0.1065351997712707,3.7953204833295842,2.9498369967156535,3.7139186873171672,1.8453196617848748,0.0000000000000000
1.2522450699201022,1.4874171829393426,0.8082029655017284,0.8476220522372921,1.8984705923504213,0.0786098516058045,3.8952293586921627,3.0730514453338182,3.9202995654940103,1.8784960608910091,0.0000000000000000
1.3467287453050427,1.4549415232975649,0.8170731825360317,0.8714037366669891,1.9047209638794653,0.0465113467506574,3.9951384843184807,3.1979669462381488,4.2183674839912362,1.9103598250798026,0.0000000000000000
1.4410586649573305,1.4220216779259014,0.8295461379993173,0.9043455661541917,1.9079378537880309,0.0178848443212669,4.0950476929075856,3.3271459395341991,4.5287243905956318,1.9409828074980691,0.0000000000000000
1.5353275827842801,1.3889273982304571,0.8441219715997120,0.8954941900630409,1.9084829377839663,-0.0069732729942267,4.1949569528228929,3.4604657356212227,4.6566723234632157,1.9704215157497518,0.0000000000000000
1.6296189247845152,1.3558971359969143,0.8345835261318844,0.8868733755706014,1.9065977622005481,-0.0307644718977454,4.2948661886293085,3.5923964499877683,4.3062660466376972,1.9987530592216418,0.0000000000000000
1.7240129741693959,1.3231617914239089,0.8156176332930425,0.9044935830419684,1.9021793645064824,-0.0576837199368502,4.3947753440835946,3.7102268207815543,3.8625194163558931,2.0261155977916374,0.0000000000000000
1.8185963883240299,1.2909779445402954,0.8196348628919043,0.9064538314002113,1.8948518595875508,-0.0890002192455006,4.4946844139089857,3.8128184464760526,3.3039343554124994,2.0526764029645701,0.0000000000000000
1.9134450405041985,1.2595851083260909,0.7865845730339086,0.9064899466299049,1.8860195103972093,-0.0878088875961616,4.5945932572911730,3.8984316110338439,3.2585009029377163,2.0785888925446190,0.0000000000000000
2.0085635556587373,1.2290199638777224,0.8189642174790114,0.9126278396644002,1.8774835520108002,-0.0830666931008654,4.6945020155676822,3.9810645038756545,3.2786024458687528,2.1039480669942296,0.0000000000000000
2.1039316288041281,1.1992423536359655,0.8430734971134211,0.9194166602348700,1.8695120144953341,-0.0765098847350775,4.7944108512488901,4.0625112049168957,3.3387259013939850,2.1287899630111955,0.0000000000000000
2.1995285111922396,1.1702071367792426,0.8204586698625743,0.9336042510990866,1.8618006350140579,-0.0778585980622729,4.8943198485426445,4.1438068010187497,3.2557947543042571,2.1531392502850957,0.0000000000000000
2.2953429352824783,1.1418977937471477,0.8574071889737938,0.9401583888288314,1.8545368862989808,-0.0675489819131894,4.9942289210368527,4.2215757333532862,3.4045342191329153,2.1770255632142885,0.0000000000000000
2.3913482893530733,1.1142430512150110,0.8622474285989722,0.9160751366947811,1.8480744060574146,-0.0618184698012038,5.0941379436261016,4.3013938490735510,3.4716748017887427,2.2004702139602554,0.0000000000000000
2.4875230758309330,1.0871834424473203,0.8467742230309898,0.9252302916359452,1.8421326969774259,-0.0571241182447481,5.1940469621415613,4.3812888844438129,3.5244586514133762,2.2234836123721968,0.0000000000000000
2.5838502243230921,1.0606711256178301,0.8558055402012004,0.9147850912725131,1.8367229429728502,-0.0511695434789160,5.2939560332026900,4.4609352235448396,3.6119324094401200,2.2460817889940414,0.0000000000000000
2.6803133509290364,1.0346576071282640,0.8672766634565844,0.8859774637048544,1.8317208432381034,-0.0489635302429167,5.3938651816266532,4.5411092533705020,3.6215006755378356,2.2682787796177086,0.0000000000000000
2.7769003785406086,1.0091078014574069,0.8726696280711850,0.8502716900051880,1.8272023321163953,-0.0414889201614808,5.4937743727586863,4.6200990960585893,3.7602183620294576,2.2900901362251065,0.0000000000000000
2.8735929767164197,0.9839604978634863,0.8782173465105014,0.8693015459407240,1.8233711089883549,-0.0352052238085813,5.5936835586228186,4.7007101982407766,3.8805617469317970,2.3115280141409729,0.0000000000000000
2.9703739372519782,0.9591554115713468,0.8812381234856965,0.8640898451544591,1.8201067805711550,-0.0301407102400214,5.6935927505330017,4.7824767583786425,3.9795155152743136,2.3325988192125622,0.0000000000000000
3.0672290435314338,0.9346413458864072,0.8737837840908015,0.8638850140391919,1.8173647267893658,-0.0247502146185567,5.7935019644665031,4.8649012814615622,4.0953160217529332,2.3533110196717777,0.0000000000000000
3.1641443564932730,0.9103662998482545,0.8801662298533360,0.8662586898039620,1.8151782612480292,-0.0190188279476054,5.8934112020106149,4.9482910464964958,4.2295261659974743,2.3736732492511301,0.0000000000000000
3.2611061247229602,0.8862774091846027,0.9024065361683369,0.8440183834889612,1.8135037244575924,-0.0145023298315235,5.9933204565951277,5.0329635299511546,4.3394273416635123,2.3936926273401862,0.0000000000000000
3.3581015106288992,0.8623242149957336,0.9054443266158982,0.8409805930413998,1.8124294071381191,-0.0070035310009725,6.0932297174215977,5.1183805886285887,1.2800199805031565,2.4133765745415441,0.0000000000000000
3.4551145339838145,0.8384425443077934,0.9079820052682377,0.8488185857503352,1.8119914525932965,-0.0017635142064830,6.1931389807324067,5.1433055087754909,-4.6293405923520874,2.4328488644483817,0.0000000000000000
3.5521314657759748,0.8145767510367301,0.9331288039720976,0.8311202520173053,1.8121146110789697,0.0042289207765843,6.2930482452819057,5.0525798884073305,-4.4697508337619132,2.4524468219886075,0.0000000000000000
3.6491383191277804,0.7906700396705837,0.9380327549125137,0.8162657260712717,1.8128343229732014,0.0101783895798171,6.3929575063419444,4.9634085589331596,-4.3162742640596479,2.4723967773195898,0.0000000000000000
3.7461207254000102,0.7666643779847081,0.9371605863125587,0.8340101419924890,1.8141582407666066,0.0163240171601175,6.4928667597638796,4.8757515363601041,-4.1711856005839225,2.4927052696002936,0.0000000000000000
3.8430638009326561,0.7425004075926256,0.9556673638605420,0.8108875784448947,1.8161014869143495,0.0225762109044326,6.5927760053762743,4.7895169934963873,-3.9917639826687705,2.5133791381645803,0.0000000000000000
3.9399513860208297,0.7181149156793541,0.9635220647665752,0.7883328227735638,1.8187598703655616,0.0306397709162225,6.6926852459902948,4.7055121734571044,-3.8963389542904352,2.5344236739647954,0.0000000000000000
4.0367650634482839,0.6934377074312177,0.9582026888200401,0.8124219548196766,1.8220764919891894,0.0357529590630019,6.7925944685072830,4.6220433169088082,-3.7611491773604184,2.5558460546989932,0.0000000000000000
4.1334890797255053,0.6684115279235695,0.9762734906427213,0.7932798676874080,1.8260068171846255,0.0429250380730890,6.8925036521969982,4.5400151690595409,-3.6433410452057271,2.5776553858318878,0.0000000000000000
4.2301049593793794,0.6429712629288864,0.9848284361761597,0.7679640525391767,1.8306387442448993,0.0497978331302743,6.9924127873363418,4.4591178084462380,-3.5277920182710063,2.5998595549199712,0.0000000000000000
4.3265928688348110,0.6170500812748123,0.9789218835452665,0.7884213073912349,1.8359747134716677,0.0570187845420256,7.0923218676515116,4.3793623642517954,-3.4181281140160849,2.6224673061086401,0.0000000000000000
4.4229314099620858,0.5905793729056859,0.9876802086358810,0.7821292151698309,1.8420415871347715,0.0644293531566406,7.1922308908080561,4.3006756487364326,-3.3131900627871569,2.6454877175416427,0.0000000000000000
4.5190973981906808,0.5634887012345311,0.9679674372875793,0.7864082740392386,1.8488611277368663,0.0720859819049686,7.2921398582913435,4.2230055930742774,-3.2131211915056479,2.6689303979162231,0.0000000000000000
4.6150656248644690,0.5357057738795058,0.9802158661115102,0.7836630215516387,1.8564577910959541,0.0799861460561486,7.3920487747268959,4.1462919971822716,-3.1177974700940494,2.6928054998248623,0.0000000000000000
4.7108086039010892,0.5071564364737586,0.9925296551031834,0.7626497410488255,1.8648564788090287,0.0881412923770754,7.4919576467108886,4.0704724626601347,-3.0272380396994243,2.7171237999227356,0.0000000000000000
4.8062963033351807,0.4777646948673262,0.9767561735969122,0.7700550468868298,1.8740829310623761,0.0965567636247130,7.5918664812445504,3.9954787473430247,-2.9415048377466855,2.7418967825338276,0.0000000000000000
4.9014958629945093,0.4474527716852564,0.9831051630910567,0.7784209309478304,1.8841633547246655,0.1052365647853650,7.6917752838913929,3.9212352604544720,-2.8607352326706246,2.7671367501639423,0.0000000000000000
4.9963713004033563,0.4161412038395601,0.9964241083700830,0.7631593450273839,1.8951241909148298,0.1141813918324884,7.7916840568018619,3.8476565431955745,-2.7851413115301327,2.7928569623732384,0.0000000000000000
5.0908832080512170,0.3837489881751685,0.9834238497081398,0.7630604370316404,1.9069917715510443,0.1233883819327718,7.8915927967743302,3.7746444807736839,-2.7150187653231459,2.8190718126286383,0.0000000000000000
5.1849884464249811,0.3501937829102073,0.9754383353890256,0.7816090336227204,1.9197919237945558,0.1328503216718567,7.9915014935417119,3.7020849508284370,-2.6507541900488198,2.8457970533054224,0.0000000000000000
5.2786398386898394,0.3153921728425248,0.9896899756744701,0.7745184711516693,1.9335494989783790,0.1425549277106490,8.0914101284860926,3.6298438696104607,-2.5928335416665602,2.8730500824580973,0.0000000000000000
5.3717858746164389,0.2792600063560642,0.9801905604834481,0.7662202060072264,1.9482878257304783,0.1524840481689374,8.1913186739856876,3.5577625078141044,-2.5418506682553166,2.9008503097530687,0.0000000000000000
5.4643704332693401,0.2417128119756054,0.9487260675045885,0.7893450120523504,1.9640280828874155,0.1626128536773126,8.2912270935848209,3.4856519470198002,-2.4985160624293195,2.9292196241643671,0.0000000000000000
5.5563325360497400,0.2026663014767668,0.9379184912362952,0.7663308978652185,1.9807885908980343,0.1729090109499095,8.3911353431437465,3.4132865047016745,-2.4636640775022092,2.9581829930241073,0.0000000000000000
5.6476061438466960,0.1620369652417447,0.9159068697003007,0.7354395867464526,1.9985840263231465,0.1833319643902612,8.4910433730671269,3.3403959517437571,-2.4382621135095293,2.9877692315147937,0.0000000000000000
5.7381200141795290,0.1197427635413290,0.9032998862982805,0.7227365219329440,2.0174245565994595,0.1938320503343233,8.5909511316252303,3.2666561663802813,-2.4234056482287443,3.0180119953894855,0.0000000000000000
5.8277976361478041,0.0757039146138749,0.9001201818826378,0.7883679628285634,2.0373149412270850,0.2043507042972245,8.6908585692699827,3.1916782438042861,-2.4203522713511636,3.0489510676949396,0.0000000000000000
5.9165572625351190,0.0298437767241811,0.9021202116018228,0.8132702479311028,2.0582534872894263,0.2148173199429858,8.7907656437125734,3.1149942829596431,-2.4198724012226460,3.0806340428355106,0.0000000000000000
6.0043120592836203,-0.0179101832081499,0.8650358688270607,0.8495861033281261,2.0802313696553179,0.2251597106197979,8.8906723253789632,3.0363903799654604,-2.4286271695184687,3.1131167071918906,0.0000000000000000
6.0909703924766623,-0.0676253472738875,0.8634750845644082,0.8764056501528230,2.1032305287769795,0.2352650697607279,8.9905786027086663,2.9554012148082474,-2.4512382490776652,3.1464644215606095,0.0000000000000000
6.1764362716301742,-0.1193628495616634,0.8674319037916305,0.8965821776440578,2.1272269933749133,0.2451279185159357,9.0904844866317873,2.8713429075137515,-2.4879582769012716,3.1807566032064063,0.0000000000000000
6.2606099652060729,-0.1731764501080006,0.8519679833046291,0.9039029909557954,2.1521742041282281,0.2543008648667441,9.1903900134757510,2.7834310711225236,-2.5440178650721115,3.2160915351493653,0.0000000000000000
6.3433887995878964,-0.2291114121043870,0.8052456800816510,0.9425843616760259,2.1780616306594798,0.2639536989042427,9.2902952455467016,2.6905700394683896,-2.6072269958041567,3.2525932566699027,0.0000000000000000
