# x_m,y_m,w_tr_right_m,w_tr_left_m,psi,kappa,s,velocity,acceleration,time,n
0.0122563300775156,0.3755249330569608,0.8361910701296058,0.8798089298703942,-3.0335947161175021,0.3291822859771220,0.0000000000000000,2.5374695148053532,-0.2406437759103010,0.0000000000000000,0.0000000000000000
-0.0868461992917170,0.3632644081087920,0.8466812098926827,0.8654918282281280,-3.0047535027611021,0.2484924080950631,0.0998580582596331,2.5279816253638350,-0.5620161577678005,0.0394271133987476,0.0000000000000000
-0.1856011161322825,0.3484659683020520,0.8613054384925615,0.8506945615074385,-2.9814477223153477,0.2182901203984508,0.1997155938836446,2.5056831406197473,-0.6895463298432821,0.0791029918159308,0.0000000000000000
-0.2840134717873984,0.3315345706016022,0.8788274438873211,0.8345022113643897,-2.9616490034036813,0.1782542397075512,0.2995738132432939,2.4780504966319343,-0.8536384085555120,0.1191766500922249,0.0000000000000000
-0.3821062724363681,0.3128342101494599,0.8802232491336107,0.8241129369134934,-2.9452429056077936,0.1503317790730042,0.3994332195112992,2.4434088103643115,-0.9699324136775186,0.1597578679948284,0.0000000000000000
-0.4799087487496668,0.2926660337831745,0.8368989124392742,0.7980036449210519,-2.9317100033806414,0.1207072213905148,0.4992935204869869,2.4034415177104091,-1.0876545019361492,0.2009641335967434,0.0000000000000000
-0.5774655401919724,0.2713402185938459,0.7938633416659909,0.7733446079840159,-2.9217441910238069,0.0788878413348784,0.5991540129252225,2.3578175715525789,-1.2411899943944393,0.2429112280799772,0.0000000000000000
-0.6748452531761427,0.2492190986318611,0.7591580291761684,0.7510919112898695,-2.9151101707729818,0.0539776225718470,0.6990146781005152,2.3046499916090961,-1.3307852018034489,0.2857472001580655,0.0000000000000000
-0.7721054401149763,0.2265771745078184,0.7299360638039393,0.7284893626483784,-2.9110817529061395,0.0267029706335230,0.7988755848228946,2.2462468141355645,-1.4205549769225314,0.3296334542239996,0.0000000000000000
-0.8693073452211199,0.2036859462809841,0.7070417980600026,0.7081994206301299,-2.9100852772618619,-0.0067457480143663,0.8987365816434588,2.1821797996375958,-1.4041524924005533,0.3747334436920331,0.0000000000000000
-0.9665231727980207,0.1808539987372957,0.6920266573227206,0.6940914808667615,-2.9122374676404355,-0.0363579238758695,0.9985975598086032,2.1169479434265943,-1.3326200067042495,0.4211898339801566,0.0000000000000000
-1.0638216712873190,0.1583776817237526,0.6898569828939654,0.6872263159031866,-2.9174231996582916,-0.0675012907355707,1.0984583761219364,2.0531233649657188,-1.2708945935495304,0.4690838909054483,0.0000000000000000
-1.1612690548211595,0.1365572630728224,0.6946028278075052,0.6839709110561933,-2.9257024636744609,-0.0983152263916785,1.1983188949854657,1.9903495081775802,-1.1811569305316654,0.5184773316414067,0.0000000000000000
-1.2589314489911874,0.1157212272585432,0.6822632242996296,0.6689268970327379,-2.9378755447429468,-0.1454876818779585,1.2981792155511229,1.9301786822106020,-1.1191417767329057,0.5694196106998668,0.0000000000000000
-1.3568834381198522,0.0962935712825779,0.6658526055795385,0.6568298773896043,-2.9543702843271782,-0.1848727534900143,1.3980392475508301,1.8713830922573662,-1.0578420693393920,0.6219559302043328,0.0000000000000000
-1.4551775126133888,0.0786843985008603,0.6679896926532138,0.6401804856901635,-2.9750047715908061,-0.2284049941108680,1.4978981882952487,1.8140575241564174,-0.9830633200324708,0.6761469760725954,0.0000000000000000
-1.5538489176574062,0.0633415113454630,0.6849138244004219,0.6119154391609281,-3.0005866659810350,-0.2839752648280294,1.5977553380624225,1.7591113945939625,-0.9049241078644813,0.7320397435503201,0.0000000000000000
-1.6529149622748311,0.0508151944183503,0.6810712512762134,0.5721075007339198,-3.0320974237285521,-0.3471756079240870,1.6976101817701772,1.7069712322924313,-0.8176397642692854,0.7896580143515877,0.0000000000000000
-1.7523543828524277,0.0417489071477199,0.6773693725623111,0.5486246606881889,-3.0704838424403351,-0.4217317604082431,1.7974620517060063,1.6584526128537964,-0.7239309053061351,0.8489978624838460,0.0000000000000000
-1.8520842443278189,0.0368932823188071,0.6791673764064564,0.5411352526709655,-3.1168100353504409,-0.5062583812385099,1.8973100479922607,1.6142797057488398,-0.6083396191440460,0.9100159883591004,0.0000000000000000
-1.9519271875722224,0.0371143616031005,0.6795463417716290,0.5420275148377058,3.1106522438935253,-0.6101103292985937,1.9971532360010333,1.5762048834012006,-0.5199420055920686,0.9726040907108945,0.0000000000000000
-2.0515680785768104,0.0433887211555951,0.6708090084879030,0.5454091708810581,3.0452649820123874,-0.6998529198017581,2.0969914789141684,1.5429198430079591,-0.2615409051499997,1.0366209234254182,0.0000000000000000
-2.1504995504265052,0.0567908332811366,0.6584331043743974,0.5582162859129611,2.9652176974208828,-0.9042032388268170,2.1968266066587279,1.5259029138826459,-0.2186369270611546,1.1016850445255333,0.0000000000000000
-2.2478665363047274,0.0787997438917808,0.6417241972604040,0.5798935119818481,2.8725380437696821,-0.9533927862199096,2.2966500612436964,1.5115321749395139,-0.0522340220138386,1.1674138266498466,0.0000000000000000
-2.3426431361994942,0.1100763703250044,0.6274913824289284,0.6120530763319856,2.7709986904882227,-1.0821756251940406,2.3964540253365927,1.5080793052629504,0.0000000000000000,1.2335176712982336,0.0000000000000000
-2.4335530832716730,0.1512432644022791,0.6116858673128436,0.6563807162229742,2.6611232298983185,-1.1212225397797355,2.4962504763989219,1.5080793052629504,0.0000000000000000,1.2996922091451864,0.0000000000000000
-2.5193888367742026,0.2021715546022125,0.5954613808261298,0.7198350085678934,2.5519678064839653,-1.0674859790735114,2.5960576270547526,1.5080793052629504,0.0718901361679429,1.3658738418401779,0.0000000000000000
-2.5994307599362121,0.2618063686918023,0.5871080379084055,0.8082824072776208,2.4531401503332253,-0.9134933671254512,2.6958725583775411,1.5128300000235195,0.2701936441551506,1.4319565482280301,0.0000000000000000
-2.6736108573880299,0.3285945365852805,0.5888273141574012,0.9185672358557285,2.3650521449395030,-0.8519458331017277,2.7956891212743300,1.5305535634937486,0.3260215432505632,1.4975523305627614,0.0000000000000000
-2.7418790342573782,0.4014252163966893,0.6016778404886942,1.0273143402981655,2.2840197728900540,-0.7720283537577255,2.8955132260529686,1.5516713015682437,0.4065881281263298,1.5623263877123073,0.0000000000000000
-2.8043242888994175,0.4793176670321191,0.6168288220793570,1.0793198764331773,2.2101844110443403,-0.7074497546456731,2.9953463052066338,1.5776139317548006,0.4642662109944530,1.6261320632643890,0.0000000000000000
-2.8611161470177060,0.5614329093302743,0.6073499700282334,0.9865574078599136,2.1425537912453287,-0.6475571930756895,3.0951873196556696,1.6067269016939478,0.5166381832524389,1.6888395557540699,0.0000000000000000
-2.9124601495445344,0.6470670144144548,0.6232854422743780,0.8979708813542012,2.0799246985143744,-0.6071432133494992,3.1950342352266747,1.6385178652535224,0.5411634393305789,1.7503738453016180,0.0000000000000000
-2.9585409564614271,0.7356477977845345,0.6471747117916625,0.8287498858384266,2.0219071106200492,-0.5551125654490423,3.2948841022699962,1.6711705447639658,0.5880444274710263,1.8107117712170029,0.0000000000000000
-2.9996097620880975,0.8266621154419729,0.6650107970942992,0.7762828680815124,1.9679270577225845,-0.5262100303569026,3.3947352555645391,1.7059439669079146,0.5991764622667238,1.8698457762674332,0.0000000000000000
-3.0358253649466556,0.9197156373397987,0.6728247262186882,0.7235059885581191,1.9162652145611008,-0.5086698187444952,3.4945877859681196,1.7406617678517293,0.5933997598614620,1.9277883076086595,0.0000000000000000
-3.0672813657251181,1.0144843554730378,0.6758050533603031,0.6711359437240766,1.8666969799249959,-0.4842553784302012,3.5944406272977081,1.7743755786737014,0.6031565625531307,1.9846029764077218,0.0000000000000000
-3.0940985883120793,1.1106677777860690,0.6896913028122400,0.6317259783276684,1.8188939151591428,-0.4733084905500858,3.6942925884959013,1.8079992880404059,0.5898941957960826,2.0403492145392890,0.0000000000000000
-3.1163363218972324,1.2080108240702474,0.7074833329150340,0.6050118875111777,1.7720081780396879,-0.4658920429214453,3.7941434044910043,1.8402891781338722,0.5718706291838032,2.0950876580153941,0.0000000000000000
-3.1340139413863404,1.3062831116076823,0.7186037296920030,0.5872239025949481,1.7255721413036986,-0.4643082538745788,3.8939929950191678,1.8710602223003980,0.4434711056335036,2.1488953596111964,0.0000000000000000
-3.1471101619530715,1.4052689189502530,0.7272576571546739,0.5745790183383401,1.6790430292349443,-0.4677687783397932,3.9938413853336492,1.8945780816772351,-0.5117396425250191,2.2019266824597086,0.0000000000000000
-3.1555621946304302,1.5047577974629422,0.7336355910637935,0.5663644089362065,1.6319065646001953,-0.4764874095437869,4.0936886376949024,1.8674138569451835,-0.5224962302343910,2.2550088017147627,0.0000000000000000
-3.1592646871353862,1.6045352780911633,0.7377215951003940,0.5633762621054939,1.5836325661330306,-0.4905710207099999,4.1935347898053585,1.8392650806636439,-0.5153649130191365,2.3088824464469209,0.0000000000000000
-3.1580685248218021,1.7043731195955061,0.7388040487858187,0.5667992785266835,1.5336701820380645,-0.5103282833297862,4.2933797966936691,1.8110722819279914,-0.4970414049821758,2.3635869830256566,0.0000000000000000
-3.1517797775573770,1.8040185506082094,0.7301923011655730,0.5701799795649748,1.4814389726273083,-0.5360452864450013,4.3932234758319257,1.7834600991479805,-0.4676760061276398,2.4191400667390770,0.0000000000000000
-3.1401593473846763,1.9031819904778140,0.7195943750202691,0.5821099759539530,1.4263092826227164,-0.5684282815394132,4.4930654620109438,1.7570835274888943,-0.4285676240467887,2.4755393074815824,0.0000000000000000
-3.1229242343647421,2.0015228370455835,0.7090553606498012,0.6096472047318497,1.3676509196426319,-0.6067804957178307,4.5929051896972481,1.7325606404431619,-0.3712203612154778,2.5327598852148525,0.0000000000000000
-3.0997518167529421,2.0986331615386766,0.6980414542292449,0.6550953027741397,1.3046528164583602,-0.6554430078759307,4.6927419367452643,1.7110357992190970,-0.3303047596082623,2.5907438846743291,0.0000000000000000
-3.0702958354606809,2.1940219912524528,0.6863460813579162,0.7008964862490284,1.2372640725696225,-0.6948592513351527,4.7925752161066768,1.6916538332438413,-0.3301735518376697,2.6494229239901492,0.0000000000000000
-3.0343363274508386,2.2871525660946879,0.6645084368493600,0.7363008201674837,1.1670878189816183,-0.7113264768062912,4.8924070256002201,1.6720553355899599,-0.3226221906976324,2.7087810934885872,0.0000000000000000
-2.9918534026427901,2.3774940099630637,0.6340181138462951,0.7634968246434407,1.0950183158243367,-0.7328057635990011,4.9922387609375827,1.6526806040380220,-0.3031848948404194,2.7688350268836905,0.0000000000000000
-2.9428704610353167,2.4644846800222306,0.6144302876924769,0.8016382661209632,1.0204275615122171,-0.7617868202528939,5.0920721483681612,1.6342635126637550,-0.2231722371435796,2.8295804389661781,0.0000000000000000
-2.8873710872746114,2.5474715584787337,0.6264283183323358,0.8507534466793092,0.9411683266464850,-0.8264961237309260,5.1919070244575565,1.6205728874507406,-0.2189349462360300,2.8909259960490981,0.0000000000000000
-2.8253250087989694,2.6256791370857653,0.6498682190215342,0.8939137991591123,0.8592753531030219,-0.8145935982606474,5.2917375869410996,1.6070294601781066,-0.2025724516420680,2.9527865053258266,0.0000000000000000
-2.7570602177195842,2.6985101294432696,0.6543042278987382,0.9098499235531242,0.7753395022710695,-0.8676347676589732,5.3915596042964458,1.5943968465577438,-0.2013052049050045,3.0151474705901644,0.0000000000000000
-2.6828072688019411,2.7652205296065566,0.6545178291772901,0.9175589420070487,0.6884401970648546,-0.8738908612800879,5.4913783295583523,1.5817437360169531,0.0000000000000000,3.0780028276921407,0.0000000000000000
-2.6028847082125659,2.8250286111621103,0.6547836076946445,0.9356800214333119,0.5939945303355655,-1.0192199923957270,5.5912012843859777,1.5817437360169531,0.0000000000000000,3.1411122635347590,0.0000000000000000
-2.5174934286950115,2.8767219099205001,0.6543681599419245,0.9584238063888404,0.4959348982251979,-0.9464850483531655,5.6910204596689322,1.5817437360169531,0.1070450117519659,3.2042193098975997,0.0000000000000000
-2.4275259312401123,2.9199363499197277,0.6518860784817431,0.9631580776093641,0.3987205383588024,-1.0021127472338869,5.7908284674776453,1.5884839140408431,0.0125810585727736,3.2671851400056640,0.0000000000000000
-2.3337299914241827,2.9540584676414010,0.6158826036749995,0.9249375681205879,0.2992651021894877,-0.9918828033894673,5.8906382728264450,1.5892742278099703,0.0262998727745412,3.3300028881749233,0.0000000000000000
-2.2370488914705327,2.9788999232701339,0.5964220246180312,0.8865579896968585,0.2054653083581872,-0.8882712290518443,5.9904597785554312,1.5909252518527224,0.1774983436257400,3.3927797714285299,0.0000000000000000
-2.1385512003485307,2.9951487044416965,0.6103840780646036,0.8660092942722873,0.1238833193302455,-0.7465457389747876,6.0902887224841669,1.6020243760221513,0.3729433665104690,3.4553106319577513,0.0000000000000000
-2.0391049492817142,3.0039224379325846,0.6228620811503014,0.8517149995859273,0.0534886865611690,-0.6639383742907615,6.1901212585163314,1.6250987248531670,0.4685733502689106,3.5171815509847244,0.0000000000000000
-1.9392900589761584,3.0061021703690392,0.6220497871235866,0.8243878385684366,-0.0083342458525058,-0.5747123083533365,6.2899599462090521,1.6536351962499616,0.5755551836424591,3.5780823072492831,0.0000000000000000
-1.8395093210866889,3.0025325131446863,0.6198657775558900,0.7965942587338385,-0.0619213597484538,-0.4988051549562755,6.3898045159485548,1.6880288746407426,0.6639317060124980,3.6378397021407984,0.0000000000000000
-1.7400266617782156,2.9939858423951975,0.6229421150287913,0.7774063714635605,-0.1083579466455009,-0.4314047756464230,6.4896536275319132,1.7268547893831823,0.7432583006396598,3.6963184799892366,0.0000000000000000
-1.6410031295586789,2.9811479709070405,0.6317646480250874,0.7610473870598211,-0.1485230443450982,-0.3731322983376040,6.5895058727624543,1.7693104543369000,0.8128967399690066,3.7534394901645416,0.0000000000000000
-1.5425266207039645,2.9646173429003251,0.6444482742335007,0.7413838991058582,-0.1832642242959828,-0.3227356614572487,6.6893601889361136,1.8146079411279592,0.8748796323149748,3.8091630335912088,0.0000000000000000
-1.4446345720484215,2.9449116484392039,0.6593188122720570,0.7073112329786321,-0.2132948024932628,-0.2787630347528509,6.7892159227933853,1.8621292853740943,0.9314012208125546,3.8634806133940338,0.0000000000000000
-1.3473303759056099,2.9224778192165108,0.6774769302952280,0.6708799477779331,-0.2392746239111130,-0.2415915121645666,6.8890727366850353,1.9114232896399754,0.9807858765455818,3.9164051781942355,0.0000000000000000
-1.2505937128832920,2.8977069805781666,0.6983076618168110,0.6423616556303809,-0.2614235604054478,-0.2020267864807182,6.9889305176514700,1.9619931688587060,1.0425380084362303,3.9679657485776945,0.0000000000000000
-1.1543732754916747,2.8709969772292312,0.7202271994467622,0.6225855353077854,-0.2793883446178529,-0.1577805148003607,7.0887894023374827,2.0143561155313785,1.1234029184384298,4.0181921635850619,0.0000000000000000
-1.0585863932967703,2.8427682918037114,0.7334121485218097,0.6026861525379953,-0.2931157605275847,-0.1171544752463078,7.1886492315055390,2.0692984819070883,1.2049088125506617,4.0670992524611362,0.0000000000000000
-0.9631362515107940,2.8134188704082956,0.7525496056748240,0.5893603321937833,-0.3028456615302708,-0.0777157053036512,7.2885097247108535,2.1266503670797552,1.2932468846683449,4.1146977798976314,0.0000000000000000
-0.8679177562759267,2.7833251922212536,0.7846730766147406,0.5833054742620175,-0.3087719106297415,-0.0409743379306094,7.3883705844188379,2.1865340782242026,1.3847673566502714,4.1610027135142351,0.0000000000000000
-0.7728207353566724,2.7528494078381924,0.8170739967350669,0.5813153197350323,-0.3107991969635970,0.0003722487632295,7.4882315719038406,2.2488885580615041,1.4988925599848872,4.2060315622503408,0.0000000000000000
-0.6777247970524398,2.7223702503265161,0.8309741855298557,0.5801939596480785,-0.3089155099461198,0.0373538638053978,7.5880925579022973,2.3144894738303812,1.3822944259944212,4.2497978184318637,0.0000000000000000
-0.5825155742579642,2.6922473682640016,0.8270721845391766,0.5797408047483010,-0.3032981886600743,0.0751490391858741,7.6879533816966177,2.3733806362831551,1.2509942932389104,4.2924017393804759,0.0000000000000000
-0.4870828109515609,2.6628417231546018,0.8258319313729044,0.5820641757426422,-0.2938504652643585,0.1140697990567927,7.7878138056722648,2.4254453788349344,1.1052658026850590,4.3340204284769541,0.0000000000000000
-0.3913210916860979,2.6345279123184540,0.8307255422615816,0.5887513111797656,-0.2804316566458103,0.1546843496958597,7.8876736011894923,2.4705320317308916,0.9446350941548801,4.3748130168176287,0.0000000000000000
-0.2951330092452406,2.6077011321770547,0.8297005113494231,0.5977770589022527,-0.2628227812438451,0.1979941645602593,7.9875326184909063,2.5084236452859869,0.7671666230666585,4.4149254515446010,0.0000000000000000
-0.1984335626963735,2.5827837226457855,0.8171134435348856,0.6028423435498839,-0.2408180313350756,0.2427315473760466,8.0873908192588271,2.5387802074159773,0.5797040500401105,4.4544951632828989,0.0000000000000000
-0.1011562673915708,2.5602307280977263,0.8080061239575884,0.6105072530965621,-0.2139349075895842,0.2957165425249957,8.1872482663767183,2.5614801335573403,0.3586767030389033,4.4936529475691955,0.0000000000000000
-0.0032688676629660,2.5404946027570396,0.8080985255617948,0.6242129863802984,-0.1837544108856775,0.3087854549387187,8.2871054527435035,2.5754248906482382,0.2952257099017037,4.5325312939260964,0.0000000000000000
0.0951782765167421,2.5237694930212600,0.7824412522461265,0.6432587405424987,-0.1527553230774432,0.3121053154077646,8.3869631990269742,2.5868464421843700,0.2714480024825658,4.5712188172448975,0.0000000000000000
0.1940972712781984,2.5101079910596691,0.7541054048629264,0.6686421531666816,-0.1217912462480608,0.3080829958251236,8.4868211188954739,2.5973037907034806,0.2774565417845868,4.6097431328540432,0.0000000000000000
0.2933895545794676,2.4994970795652609,0.7455286232654010,0.6986359248550428,-0.0911832803830852,0.3049726422552737,8.5866787623982201,2.6079492506712492,0.2798584036777941,4.6481111594260511,0.0000000000000000
0.3929584642999871,2.4919123679912336,0.7477185383157677,0.7244774488387870,-0.0609457672506997,0.3006649088597884,8.6865361388538140,2.6186429970535046,0.2872077544456797,4.6863224342769119,0.0000000000000000
0.4927098676962965,2.4873164941379282,0.7256817003138832,0.7203175096585939,-0.0312418696453596,0.2942846700991314,8.7863933596042880,2.6295723382883422,0.3030142971242289,4.7243762161322511,0.0000000000000000
0.5925531104527380,2.4856506906434275,0.7045454718037040,0.7210602410939442,-0.0022569171555515,0.2862642997668892,8.8862504976836654,2.6410541386550825,0.3254463020539625,4.7622681587755817,0.0000000000000000
0.6924031709832101,2.4868366167631653,0.6941216177143240,0.7412126869559953,0.0258510336578122,0.2767178744077189,8.9861076006293263,2.6533305887284597,0.3540358824661829,4.7999900502086623,0.0000000000000000
0.7921824327102367,2.4907787148829681,0.6931604759155994,0.7717989922853837,0.0529451479770722,0.2659565511888850,9.0859647045747973,2.6666213096189377,0.3875398524953229,4.8375306542793455,0.0000000000000000
0.8918220068477996,2.4973669352147536,0.6993033326374377,0.8033595655671061,0.0789044355460082,0.2539866037382477,9.1858218494441299,2.6810942645308744,0.4260450683839292,4.8748763745162371,0.0000000000000000
0.9912625794315597,2.5064796642619065,0.7025320751166217,0.8257559471863133,0.1036643183107686,0.2419312995496407,9.2856790940810257,2.6969156139079073,0.4649106212805273,4.9120117635891498,0.0000000000000000
