# x_m,y_m,w_tr_right_m,w_tr_left_m,psi,kappa,s,velocity,acceleration,time,n
-0.0274971487392502,-0.1927009685169646,1.4060910215684370,0.3939089784315631,3.1043053494535440,-0.0020536028954297,0.0000000000000000,2.0000000000000000,0.0000000000000000,0.0000000000000000,0.0000000000000000
-0.1269267400685388,-0.1889862216904696,1.3990095052950928,0.3978410065902216,3.1042398035802576,0.0007360841454350,0.0994989596724222,2.0000000000000000,0.0000000000000000,0.0497494798362111,0.0000000000000000
-0.2263566035891704,-0.1852787729427015,1.3728390126868997,0.3788753389994290,3.1044523077115360,0.0035354002808732,0.1989979191441109,2.0000000000000000,0.0000000000000000,0.0994989595720555,0.0000000000000000
-0.3257877632841630,-0.1816062742234121,1.3353332131666007,0.3638606905855877,3.1049425401102879,0.0063186205841679,0.2984968777574266,2.0000000000000000,0.0000000000000000,0.1492484388787133,0.0000000000000000
-0.4252209010220041,-0.1779877330168120,1.2628803377412092,0.3600077343473884,3.1054515810994618,0.0039134667636773,0.3979958361482376,2.0000000000000000,0.0000000000000000,0.1989979180741188,0.0000000000000000
-0.5246541529411958,-0.1743723753914498,1.2210631019052030,0.3620412585469082,3.1046492045405367,-0.0200417901507042,0.4974947929165610,2.0000000000000000,0.0000000000000000,0.2487473964582805,0.0000000000000000
-0.6240795960302341,-0.1705494916798792,1.1424145192439450,0.3663150093928024,3.1011841537312015,-0.0496081763999597,0.5969937033293077,2.0000000000000000,0.0000000000000000,0.2984968516646539,0.0000000000000000
-0.7234848373132154,-0.1662358653935834,1.0600097720401673,0.3712156495401715,3.0947761807941756,-0.0791969208580392,0.6964924941072139,2.0000000000000000,0.0000000000000000,0.3482462470536070,0.0000000000000000
-0.8228528099870975,-0.1611390731371981,1.0104575585284150,0.3766729579346996,3.0854239885758759,-0.1087899291123543,0.7959910935175680,2.0000000000000000,0.0000000000000000,0.3979955467587841,0.0000000000000000
-0.9221595284737845,-0.1549669905363087,0.9542656949346257,0.3844068057234264,3.0731265277084612,-0.1384005837678624,0.8954894298867069,2.0000000000000000,0.0000000000000000,0.4477447149433535,0.0000000000000000
-1.0213715039801630,-0.1474280115005546,0.9180594663522191,0.3984867364740380,3.0578815633529075,-0.1680395833721169,0.9949874313177899,2.0000000000000000,0.0000000000000000,0.4974937156588950,0.0000000000000000
-1.1204431589471875,-0.1382313578768718,0.9127542251814835,0.4231658460524049,3.0396853265847232,-0.1977273285607743,1.0944850255388521,2.0000000000000000,0.0000000000000000,0.5472425127694261,0.0000000000000000
-1.2193142368730732,-0.1270874961105760,0.8730825236318263,0.4520271154660592,3.0185316321154430,-0.2274922559983182,1.1939821395939485,2.0000000000000000,0.0000000000000000,0.5969910697969744,0.0000000000000000
-1.3179072029291434,-0.1137086895879296,0.8290472612987377,0.4746204620197943,2.9944110113397882,-0.2573722036957743,1.2934786994324867,2.0000000000000000,0.0000000000000000,0.6467393497162435,0.0000000000000000
-1.4161246286564282,-0.0978097163644964,0.8095225691505077,0.4924262043928617,2.9673095832689533,-0.2874183197152670,1.3929746293294134,2.0000000000000000,0.0000000000000000,0.6964873146647068,0.0000000000000000
-1.5138465490647137,-0.0791087691009473,0.7903866161217531,0.5111043064481620,2.9372077023973580,-0.3176956466923470,1.4924698511083376,2.0000000000000000,0.0000000000000000,0.7462349255541689,0.0000000000000000
-1.6109277786418219,-0.0573285746050271,0.7666394080857085,0.5312429119326516,2.9040784848050940,-0.3482849953959793,1.5919642831559819,2.0000000000000000,0.0000000000000000,0.7959821415779911,0.0000000000000000
-1.7071951691838831,-0.0321977726713693,0.7274072256147396,0.5426108105260184,2.8678860897102942,-0.3792860017251887,1.6914578391664417,2.0000000000000000,0.0000000000000000,0.8457289195832209,0.0000000000000000
-1.8024447872203431,-0.0034525955022936,0.6784079532262732,0.5519495968547439,2.8285837307783241,-0.4108195226753388,1.7909504265615490,2.0000000000000000,-0.4165346006274546,0.8954752132807746,0.0000000000000000
-1.8964389856793606,0.0291610949238585,0.6337995743155963,0.5739410132485537,2.7861114354020895,-0.4430303266513624,1.8904419445274845,1.9791707052693761,-0.4267681784717652,0.9454813705105637,0.0000000000000000
-1.9889033402002672,0.0658853417444504,0.5926645789231887,0.6084990493548291,2.7403933540098118,-0.4760934958533388,1.9899322815532863,1.9576000768237605,-0.3720783132910421,0.9960255055556342,0.0000000000000000
-2.0795234158963964,0.1069471139989637,0.5491546998837087,0.6509484407935150,2.6913348982956009,-0.5102114622083961,2.0894213124052032,1.9385981118322873,-0.3138100159119979,1.0470953054141650,0.0000000000000000
-2.1679413387870552,0.1525546777607135,0.5000978920060360,0.6999608644908695,2.6388190069011457,-0.5456347056791855,2.1889088943467732,1.9224261337839352,-0.2504231344770892,1.0986296007786798,0.0000000000000000
-2.2537521159446268,0.2028932145317600,0.4444233668352793,0.7572058306283003,2.5827020524830937,-0.5826478537466911,2.2883948620037065,1.9094227044164886,-0.1798696400107483,1.1505554318110209,0.0000000000000000
-2.3364996677024075,0.2581194825908085,0.3926160224229098,0.8253276325092307,2.5228066432164451,-0.6216479250578065,2.3878790215751500,1.9000280798460329,-0.1000142966324428,1.2027856167932909,0.0000000000000000
-2.4156725277276347,0.3183552723481705,0.3688131957124486,0.9071490796036225,2.4589220442795918,-0.6629065927583914,2.4873611412362595,1.8947842715603753,-0.0267767490302123,1.2552162038415493,0.0000000000000000
-2.4907090798429792,0.3836683532534994,0.3600854248550810,1.0092779267312928,2.3912138427851310,-0.6986228803701654,2.5868412030109931,1.8933779153822614,-0.0254458553091342,1.3077377469357880,0.0000000000000000
-2.5610781806225700,0.4539841085822798,0.3749486318337742,1.1258309302195100,2.3220349408942829,-0.6925109080070616,2.6863204259270628,1.8920405023762317,-0.0382547595968516,1.3602969157977463,0.0000000000000000
-2.6264554761356380,0.5289645093797505,0.3891466903961534,1.2162556129082056,2.2540159209131367,-0.6752439271122590,2.7858003297888598,1.8900280693730982,-0.0780032590640646,1.4129029973505134,0.0000000000000000
-2.6866501380820647,0.6081669563924468,0.3846929055200707,1.2259329489213828,2.1875689453526546,-0.6608741033453763,2.8852811065230788,1.8859179339035974,-0.1145837293320829,1.4655948402147341,0.0000000000000000
-2.7415088693413385,0.6911554062010038,0.3908968910982075,1.1611618100873566,2.1224104630607776,-0.6493173424919103,2.9847625781497320,1.8798639677865956,-0.1477945293531831,1.5184292710042611,0.0000000000000000
-2.7908936854143422,0.7775140199681982,0.4100670766285202,1.0789446067540964,2.0582685751925101,-0.6404187222050398,3.0842445877311424,1.8720263736956206,-0.1776761957727104,1.5714596106607821,0.0000000000000000
-2.8346774317677981,0.8668433662145894,0.4181233118735561,1.0085098290859793,1.9948837539349000,-0.6340846150969920,3.1837269909266390,1.8625604510779696,-0.2042115085155095,1.6247358673730776,0.0000000000000000
-2.8727401464723030,0.9587565300946325,0.4210894675372039,0.9467632384933795,1.9320041279692339,-0.6302540073440254,3.2832096524567578,1.8516210263321604,-0.2273756869652484,1.6783049577016886,0.0000000000000000
-2.9049660818459722,1.0528751499301783,0.4343752101343952,0.8927667601803013,1.8693821271537163,-0.6289011912088673,3.3826924424782279,1.8393641536440413,-0.2471204797673048,1.7322107769724731,0.0000000000000000
-2.9312413173532610,1.1488253334650327,0.4549568312678024,0.8524074565503014,1.8067713077482865,-0.6300290789562119,3.4821752335595790,1.8259496213174755,-0.2633803932415049,1.7864941465224078,0.0000000000000000
-2.9514519358888838,1.2462333996495241,0.4750321628329695,0.8260354764215939,1.7439234971704689,-0.6336695377624664,3.5816578976744626,1.8115431138117721,-0.2760647897967756,1.8411926277889819,0.0000000000000000
-2.9654827477385242,1.3447213955029949,0.4903474490475553,0.8097178569208319,1.6805859292037129,-0.6398832327209680,3.6811403031962096,1.7963188120323113,-0.2850510286415092,1.8963401958314989,0.0000000000000000
-2.9732165760385145,1.4439023308419496,0.4989077620712338,0.8011663200021603,1.6164984278837813,-0.6487588197601830,3.7806223117951703,1.7804624053026954,-0.2901788617620062,1.9519667508563450,0.0000000000000000
-2.9745341568355044,1.5433750683469383,0.5004485191130550,0.8000389425211805,1.5513905416673783,-0.6604147665913155,3.8801037750227132,1.7641744644917308,-0.2868831531397774,2.0080974445673272,0.0000000000000000
-2.9693147281277947,1.6427188061662843,0.4953789313967881,0.8069490952005757,1.4849783604536135,-0.6750039664925602,3.9795845303473176,1.7479224341017501,-0.2775575010729248,2.0647477923207984,0.0000000000000000
-2.9574374151847982,1.7414870869721624,0.4850788549165069,0.8237857194699527,1.4169611215574716,-0.6927133621827162,4.0790643969339522,1.7320537143179129,-0.2623001932319097,2.1219205212958583,0.0000000000000000
-2.9387835857182889,1.8392012668487392,0.4719887771845047,0.8539938670660316,1.3470172796553821,-0.7137753472548637,4.1785431700602711,1.7169226734059588,-0.2402918761584857,2.1796064906636969,0.0000000000000000
-2.9132404057575374,1.9353433909841737,0.4562763416270595,0.8981929067605073,1.2748012095992882,-0.7384431921527361,4.2780206151208509,1.7029433997163106,-0.2103113423387777,2.2377827133189654,0.0000000000000000
-2.8807059347455057,2.0293484535133097,0.4341633534131318,0.9490267397418417,1.1999365297006297,-0.7670853824322439,4.3774964593501888,1.6906136240954157,-0.1711113235429396,2.2964090122326666,0.0000000000000000
-2.8410960467579072,2.1205960215734541,0.4062902114455141,0.9975655111565597,1.1220172683088101,-0.7999285567380180,4.4769703850959877,1.6805154553863180,-0.1197588230828765,2.3554242106427452,0.0000000000000000
-2.7943539126692212,2.2084013460918053,0.3801874671210643,1.0449490423677870,1.0405802406791134,-0.8379097011440619,4.5764419997050689,1.6734117810033518,-0.0569143940795839,2.4147407119250790,0.0000000000000000
-2.7404624860188931,2.2920061970282712,0.3634057104620486,1.0964299698487072,0.9551848665086231,-0.8796186678041529,4.6759108740654254,1.6700253193807613,0.0000000000000000,2.4742416813609509,0.0000000000000000
-2.6794847721609862,2.3705888630085612,0.3600021061620756,1.1450446595108308,0.8660013620715405,-0.9143112621817286,4.7753770340390895,1.6700253193807613,0.0000000000000000,2.5338013531930796,0.0000000000000000
-2.6117198837976554,2.4434003428111954,0.3636951111244938,1.1794966591869229,0.7772997056390318,-0.8699264394962496,4.8748435695469885,1.6700253193807613,0.0728168149972830,2.5933612498925984,0.0000000000000000
-2.5379344405272892,2.5101088975366328,0.3661785018856188,1.2032386886286801,0.6938647635794762,-0.8081287695883901,4.9743137807268241,1.6743568243666758,0.1673144775159805,2.6528462052023869,0.0000000000000000
-2.4590221077596630,2.5706723534020282,0.3682479948601370,1.2204110295009385,0.6162367042609819,-0.7530188761884783,5.0737878399040195,1.6842676971843020,0.2434517193918974,2.7120812036601842,0.0000000000000000
-2.3757933155888642,2.6251581840849307,0.3720101997927446,1.2190596953977981,0.5438885462248704,-0.7018554728958085,5.1732651618996179,1.6985857428870559,0.3088300785035533,2.7708938739445346,0.0000000000000000
-2.2889618160632370,2.6737029419591467,0.3758288949125491,1.1899353732839686,0.4764650047341668,-0.6539107384573853,5.2727453248816678,1.7165775423865235,0.3665655701714886,2.8291517987770103,0.0000000000000000
-2.1991539772632804,2.7164971816977488,0.3817415324519772,1.1388763067517484,0.4136286449360003,-0.6095536209250243,5.3722279608777246,1.7376916519906147,0.4172992850984170,2.8867516153506552,0.0000000000000000
-2.1069144056574469,2.7537676195332819,0.3969438536214252,1.0746748961242436,0.3550677102547415,-0.5678940767863180,5.4717127542206274,1.7614204903083719,0.4635591882238971,2.9436144933020536,0.0000000000000000
-2.0127147160282539,2.7857679661915165,0.4225122579852334,1.0057136680476559,0.3005398963359154,-0.5284209733688481,5.5711994554046722,1.7874110026958221,0.5069297325732867,2.9996817939784388,0.0000000000000000
-1.9169613940785271,2.8127724772541174,0.4523583396911371,0.9412474280073141,0.2498511641253658,-0.4906729340469551,5.6706878581566418,1.8154077644872193,0.5487568149962950,3.0549098857482377,0.0000000000000000
-1.8200025197121024,2.8350709719568403,0.4839619093657271,0.8847233132907670,0.2028495209054120,-0.4542639294768023,5.7701777882220080,1.8452362736663921,0.5901636189259436,3.1092664028137693,0.0000000000000000
-1.7221336255954958,2.8529650892315299,0.5192468654808632,0.8364200590102138,0.1594177657772566,-0.4188791335141702,5.8696690937147391,1.8767869360843137,0.6320998795908138,3.1627272760464189,0.0000000000000000
-1.6236028298903147,2.8667654010904120,0.5590828752815798,0.7963971518188375,0.1194681519732659,-0.3842401364235787,5.9691616377052235,1.9100020035617460,0.6754415396994329,3.2152744581451307,0.0000000000000000
-1.5246154107360879,2.8767892914701303,0.6020496390982367,0.7586864643804007,0.0829384713127661,-0.3501110795823845,6.0686552934283862,1.9448681059737292,0.7210003869296620,3.2668941770441169,0.0000000000000000
-1.4253379282506198,2.8833593951772802,0.6455169358952434,0.7131661822969242,0.0497881050913327,-0.3162931302982166,6.1681499404772353,1.9814094245443423,0.3719599169934411,3.3175755903041324,0.0000000000000000
-1.3259019979157973,2.8868024589456160,0.6861611485939810,0.6578831663452464,0.0199946658955124,-0.2826180586312944,6.2676454626360965,2.0000000000000000,0.0000000000000000,3.3675556408588418,0.0000000000000000
-1.2264078112994439,2.8874485434157475,0.7227747651299956,0.6031403193280095,-0.0064490511362050,-0.2489483996251204,6.3671417469666798,2.0000000000000000,0.0000000000000000,3.4173037830241335,0.0000000000000000
-1.1269274867134387,2.8856304778754587,0.7603934501091092,0.5585272639898760,-0.0295380251148640,-0.2151754157735123,6.4666386833117038,2.0000000000000000,0.0000000000000000,3.4670522511966455,0.0000000000000000
-1.0275083227668698,2.8816835038989832,0.8069530823693492,0.5232672560864073,-0.0492578059681783,-0.1812178896067190,6.5661361645029670,2.0000000000000000,0.0000000000000000,3.5168009917922771,0.0000000000000000
-0.9281760183648600,2.8759450557737694,0.8627775866276129,0.4928412304734871,-0.0655872298305933,-0.1470216858400862,6.6656340865149328,2.0000000000000000,0.0000000000000000,3.5665499527982600,0.0000000000000000
-0.8289379113121415,2.8687546290923245,0.9180825381301021,0.4659588835709386,-0.0785010658486638,-0.1125588002154460,6.7651323484458228,2.0000000000000000,0.0000000000000000,3.6162990837637050,0.0000000000000000
-0.7297862758069683,2.8604536963219847,0.9638216986769482,0.4427212326832033,-0.0879725371032243,-0.0778257714365310,6.8646308524959263,2.0000000000000000,0.0000000000000000,3.6660483357887568,0.0000000000000000
-0.6307017077208719,2.8513856308169583,0.9983445564275406,0.4223095782407852,-0.0939757754955401,-0.0428439387156271,6.9641295029632149,2.0000000000000000,0.0000000000000000,3.7157976610224011,0.0000000000000000
-0.5316566105714627,2.8418956042719086,1.0216334451402427,0.4042683667580028,-0.0964877870901995,-0.0076493360399466,7.0636282058349691,2.0000000000000000,0.0000000000000000,3.7655470124582782,0.0000000000000000
-0.4326187829598277,2.8323304320904907,1.0338206668047702,0.3891185292541767,-0.0954909810384752,0.0276858727062339,7.1631268682224212,2.0000000000000000,0.0000000000000000,3.8152963436520042,0.0000000000000000
-0.3335551051479243,2.8230382931228672,1.0398859877163804,0.3768605835974010,-0.0909734027422144,0.0631209682331015,7.2626253913683163,2.0000000000000000,0.0000000000000000,3.8650456052249518,0.0000000000000000
-0.2344352421807623,2.8143684746275341,1.0449171791500058,0.3671679615578963,-0.0829313298883807,0.0985316812829190,7.3621236978231046,2.0000000000000000,0.0000000000000000,3.9147947584523459,0.0000000000000000
-0.1352356281733283,2.8066695356130444,1.0477324260093761,0.3610463793037556,-0.0714050737325975,0.1331573449651537,7.4616216228324870,2.0000000000000000,0.0000000000000000,3.9645437209570371,0.0000000000000000
-0.0359431370249529,2.8002830534086733,1.0464635725918339,0.3600444343967130,-0.0565083865616889,0.1662841351080634,7.5611192909126839,2.0000000000000000,0.0000000000000000,4.0142925549971356,0.0000000000000000
0.0634387810802221,2.7954808360470755,1.0444233956864388,0.3644689179818740,-0.0401053912879641,0.1634369657908303,7.6606171649495280,2.0000000000000000,0.0000000000000000,4.0640414920155576,0.0000000000000000
0.1628851898815716,2.7922694609882397,1.0460463171244931,0.3732591788156728,-0.0247639123319192,0.1449429973151592,7.7601154119353604,2.0000000000000000,0.0000000000000000,4.1137906155084734,0.0000000000000000
0.2623678113329032,2.7904933719956713,1.0509681084434483,0.3832460450845047,-0.0112370367432921,0.1269600362895217,7.8596138866118022,2.0000000000000000,0.0000000000000000,4.1635398528466938,0.0000000000000000
0.3618651102119018,2.7899742692647962,1.0541131225432696,0.3896106154685193,0.0005062941622842,0.1090912703229778,7.9591125396271165,2.0000000000000000,0.0000000000000000,4.2132891793543514,0.0000000000000000
0.4613623415381198,2.7905352341487588,1.0516753985202767,0.3919461941401704,0.0104740001926722,0.0912677514917464,8.0586113522993479,2.0000000000000000,0.0000000000000000,4.2630385856904676,0.0000000000000000
0.5608505030761672,2.7919997729744384,1.0455645369561950,0.3978726995510943,0.0186704949815739,0.0734880515467966,8.1581102927971862,2.0000000000000000,0.0000000000000000,4.3127880559393867,0.0000000000000000
0.6603253928191308,2.7941917219080099,1.0401101124773888,0.4132295737119731,0.0250979142117047,0.0557077174627048,8.2576093296241933,2.0000000000000000,0.0000000000000000,4.3625375743528902,0.0000000000000000
0.7597866708136428,2.7969349787891140,1.0362237320897529,0.4320231427939966,0.0297552283103357,0.0379075221992122,8.3571084315227395,2.0000000000000000,0.0000000000000000,4.4122871253021634,0.0000000000000000
0.8592369289964898,2.8000532870398263,1.0311348313813937,0.4462592938141153,0.0326392198332091,0.0200626540141844,8.4566075656847080,2.0000000000000000,0.0000000000000000,4.4620366923831476,0.0000000000000000
0.9586807689801020,2.8033700034949454,1.0230863537680268,0.4613835916389475,0.0337443509151121,0.0021512197604757,8.5561067009509504,2.0000000000000000,0.0000000000000000,4.5117862600162688,0.0000000000000000
1.0581238701302618,2.8067078709428865,1.0141792639655700,0.4892217685315222,0.0330632876406394,-0.0158410507661318,8.6556058050949627,2.0000000000000000,0.0000000000000000,4.5615358120882750,0.0000000000000000
1.1575720516589512,2.8098888330279004,1.0078169198720199,0.5289337238009663,0.0305871823285266,-0.0339303780400386,8.7551048469453718,2.0000000000000000,0.0000000000000000,4.6112853330134795,0.0000000000000000
1.2570303195138732,2.8127338517208296,1.0045862671713712,0.5683103927093662,0.0263057073268063,-0.0521303517307300,8.8546037975733292,2.0000000000000000,0.0000000000000000,4.6610348083274582,0.0000000000000000
1.3565018903847683,2.8150627543810809,1.0015799070708971,0.6002671286865968,0.0202074425469867,-0.0704494041037997,8.9541026277128051,2.0000000000000000,0.0000000000000000,4.7107842233971962,0.0000000000000000
1.4559871976430716,2.8166941339021219,0.9952825337342894,0.6251106180524809,0.0122800897360655,-0.0888968166223973,9.0536013099122226,2.0000000000000000,0.0000000000000000,4.7605335644969049,0.0000000000000000
1.5554828708865973,2.8174452808132910,0.9848684477912092,0.6418787147758727,0.0025105448941645,-0.1074795652397471,9.1530998185234811,2.0000000000000000,0.0000000000000000,4.8102828188025342,0.0000000000000000
1.6549806877496811,2.8171321666302220,0.9727855676129702,0.6491403622825576,-0.0091149196882512,-0.1262032754939052,9.2525981280619423,2.0000000000000000,0.0000000000000000,4.8600319735717648,0.0000000000000000
