# x_m,y_m,w_tr_right_m,w_tr_left_m,psi,kappa,s,velocity,acceleration,time,n
0.0759185632029501,0.3686226873891332,0.9002263800904096,0.8157736199095904,-2.9961528589533897,0.3946525681950317,0.0000000000000000,2.2957790955926476,-0.2520019080488773,0.0000000000000000,0.0000000000000000
-0.0224086622480593,0.3525086713784527,0.9191078391248049,0.7930540373854524,-2.9648210897295684,0.2342766475622123,0.0996388718166064,2.2848158096732765,-0.7785409543403959,0.0435047734529245,0.0000000000000000
-0.1202972516616810,0.3338712840824452,0.9415677084998142,0.7705921884476756,-2.9423822367869339,0.2160856395000164,0.1992858895472439,2.2506054108996052,-0.8506146281765653,0.0874464551113485,0.0000000000000000
-0.2177906953563768,0.3132073782947243,0.9631396705144748,0.7486798715262842,-2.9241985369633805,0.1488404768668934,0.2989451518656787,2.2126186889854944,-1.0698788522564411,0.1321044243676987,0.0000000000000000
-0.3149569764556355,0.2910320227294008,0.9604971121168486,0.7293426127787610,-2.9106645345479984,0.1227501079241353,0.3986097522868347,2.1638907935081941,-1.1595723122779267,0.1776496703313235,0.0000000000000000
-0.4118664194540673,0.2677121424970438,0.9203529145661503,0.6980204441016915,-2.9011283296588299,0.0685954121513272,0.4982855114076851,2.1098011435360151,-1.3196841620909703,0.2242958772124812,0.0000000000000000
-0.5086038205865737,0.2436936450289956,0.8824129045677719,0.6690788476938293,-2.8958467259027456,0.0373811692358321,0.5979600467639840,2.0465050827982103,-1.4078024702109482,0.2722589145482597,0.0000000000000000
-0.6052459604957474,0.2192936601218743,0.8521813960459651,0.6422294439894132,-2.8930197385469345,0.0193430729239260,0.6976348302836488,1.9767494128000791,-1.4555129065766463,0.3218082451355819,0.0000000000000000
-0.7018563729967163,0.1947379144220349,0.8278523555310747,0.6161251101304607,-2.8929959751413037,-0.0188662862234896,0.7973171077981727,1.9019360026159577,-1.4047487687979168,0.3732082772796333,0.0000000000000000
-0.7985082493856128,0.1703504229410895,0.8107022014980806,0.5939259759291446,-2.8963542476375155,-0.0485139387411913,0.8969982742752345,1.8268296489505482,-1.3618628749584343,0.4266743171393302,0.0000000000000000
-0.8952754602674539,0.1464283541320796,0.8039460608029013,0.5785868580176557,-2.9025911413321004,-0.0766241112457329,0.9966785555647337,1.7509439789375378,-1.3141516337491839,0.4823962781446379,0.0000000000000000
-0.9922290501340857,0.1232581337128835,0.8085889152197639,0.5691401956519065,-2.9120283075219193,-0.1127176736000330,1.0963623441278756,1.6744568045131816,-1.2389105124151514,0.5405989790050734,0.0000000000000000
-1.0894501071753131,0.1012177211704471,0.8097123572353683,0.5558357331156792,-2.9262956110795253,-0.1735220067004624,1.1960504262503358,1.5989985504597723,-1.1876260880363121,0.6015059236933622,0.0000000000000000
-1.1870270911395742,0.0808550792995521,0.7995064630225027,0.5366860541940706,-2.9463477367283257,-0.2288170120829243,1.2957294359942331,1.5231656441666142,-1.1340621563856770,0.6653584333822867,0.0000000000000000
-1.2850385689213804,0.0627454798486025,0.7986630967461518,0.5155094117220169,-2.9725510968254754,-0.2969893997987855,1.3953999299693676,1.4470551160610861,-1.0490353478315437,0.7324716226170784,0.0000000000000000
-1.3835428501400377,0.0476136619542901,0.8173120570828319,0.4833944584013876,-3.0076048243354423,-0.4064890477529627,1.4950596777675180,1.3729076125239053,-0.9533085261032279,0.8031532289999813,0.0000000000000000
-1.4825594935041579,0.0365383766955307,0.8279644684869620,0.4364599923184266,-3.0551521258845629,-0.5480098134522876,1.5946937964551455,1.3018875538443007,-0.8615657009263222,0.8776517326165474,0.0000000000000000
-1.5820014604811983,0.0309215719968241,0.8327696423866755,0.3976139770590937,-3.1179183157788044,-0.7124280920607948,1.6942942647837944,1.2342149359971188,-0.7356459913453824,0.9561978235001827,0.0000000000000000
-1.6815825445441184,0.0324779911784964,0.8438944718514704,0.3767364089205622,3.0828171575988961,-0.9437012033456325,1.7938875112607289,1.1733523610436523,-0.7340568215574901,1.0389313334621664,0.0000000000000000
-1.7805915444785054,0.0431345685519267,0.8548604694320946,0.3664856828317224,2.9844355614128366,-1.0335062190366615,1.8934683563531629,1.1093059838897432,-0.6522703558130907,1.1261812237608742,0.0000000000000000
-1.8779598820766130,0.0642203589233986,0.8562706003466529,0.3600000000000000,2.8676280043354918,-1.3092042779203448,1.9930936730262290,1.0490922191994971,0.0000000000000000,1.2184953449739813,0.0000000000000000
-1.9713281763989610,0.0989092197949546,0.8575884518446155,0.3600000000000000,2.6872691059676947,-2.3169296559078103,2.0926976661852925,1.0490922191994971,0.0000000000000000,1.3134383741340543,0.0000000000000000
-2.0545306595126633,0.1516342401495041,0.8657869622253036,0.3603476770239107,2.4692372270734273,-2.1370844856750413,2.1911993462099173,1.0490922191994971,0.1164332955302655,1.4073306728490194,0.0000000000000000
-2.1274792576950756,0.2187866658228725,0.8807466580239989,0.3657510940657810,2.3602982007639763,-0.0587024380414153,2.2903504745474015,1.0600393717408241,1.4611982592619148,1.5013514809990502,0.0000000000000000
-2.1983499220415919,0.2901396970346290,0.8893223495675848,0.3847612199742061,2.3407631588533415,-0.3296423707850081,2.3909183925333202,1.1906228634785743,1.2251203788367766,1.5907188826572694,0.0000000000000000
-2.2671462833169391,0.3626477382120910,0.8929530070586633,0.4197094934250445,2.3247402814579021,0.0087827043413979,2.4908701577009280,1.2893753107039891,1.4914110902050219,1.6713252042329318,0.0000000000000000
-2.3353775389845781,0.4352916054373963,0.8974787877582007,0.4765870140548362,2.3247273078261950,-0.0090451754117812,2.5905327670157083,1.3999159022865177,1.4895726976640773,1.7454433278733648,0.0000000000000000
-2.4037379720070562,0.5081304374454009,0.9039740800331235,0.5495491120652155,2.3244618805082031,0.0037303377015360,2.6904259312028089,1.5024515944240717,1.4950466364268891,1.8142789693283596,0.0000000000000000
-2.4720672014720937,0.5809281077960952,0.9129843002040406,0.6316413976429576,2.3245174870290026,-0.0026165112386288,2.7902677281005714,1.5987173229939897,1.4960661568049607,1.8786687523788670,0.0000000000000000
-2.5402063320053081,0.6536029532026826,0.9241372472630538,0.7116390357840925,2.3230801666196554,-0.0262389191414191,2.8898898855992616,1.6893725922496896,0.8791241803935675,1.9392645147008392,0.0000000000000000
-2.6081608274899564,0.7264824356219628,0.9331370617811138,0.7573701585852928,2.3188626825057970,-0.0584106788382887,2.9895354194393451,1.7404543521674225,-1.3410262557019454,1.9973697984104335,0.0000000000000000
-2.6759000993799242,0.8000015655643741,0.9197810885212824,0.6985608553051714,2.3110953912970444,-0.0969842990729815,3.0895037715497611,1.6616440600019826,-1.2751710079617222,2.0561384405830565,0.0000000000000000
-2.7428313908964608,0.8741109624449991,0.9165998060732289,0.6308467843285819,2.2986851100780559,-0.1515689023573538,3.1893636758661663,1.5831563638679691,-1.1931318843003293,2.1176891625207133,0.0000000000000000
-2.8085352103800760,0.9491689662156532,0.9206525241354595,0.5752155831458943,2.2797035120746867,-0.2290049039761527,3.2891168503759083,1.5061031459764478,-1.1381620722990846,2.1822698001731102,0.0000000000000000
-2.8724455230302901,1.0256182115284722,0.9213216805708713,0.5361725055003830,2.2532918964077471,-0.3011225727299257,3.3887612941344427,1.4288189644309552,-1.0607432013241138,2.2501724156498137,0.0000000000000000
-2.9339773701250307,1.1039699373227478,0.9101831060028507,0.5057200552184582,2.2179960776958803,-0.4074556372285452,3.4883863971046876,1.3528378808282031,-0.9426969805123604,2.3218024609877483,0.0000000000000000
-2.9921654095019066,1.1847663350320565,0.8867695460900653,0.4765948345723922,2.1691053726990126,-0.5746410462922543,3.5879549956150898,1.2815788299845376,-0.8353816658100857,2.3973930827005026,0.0000000000000000
-3.0454891588404500,1.2685881825586569,0.8655275165879334,0.4596739086072936,2.1024586190917933,-0.7671833382831851,3.6873004754634073,1.2150973263783262,-0.6696373297348289,2.4769752740833395,0.0000000000000000
-3.0922281300836039,1.3564798331908272,0.8468819100272611,0.4647217096486121,2.0118788850050433,-1.0528859358272147,3.7868468148421903,1.1589398702257103,-0.4463631326328761,2.5608377674942937,0.0000000000000000
-3.1294583171569608,1.4490437475702260,0.8149383736404989,0.4888057501320635,1.8883354584984757,-1.4244819017267099,3.8866173770073593,1.1198543751102688,-0.1843296701844566,2.6484021119886418,0.0000000000000000
-3.1530434644766130,1.5453440315452414,0.7745310796718975,0.5254735143400896,1.7267585850067737,-1.8378314088025287,3.9857637529762182,1.1034140582251808,0.0000000000000000,2.7375918602729867,0.0000000000000000
-3.1590617783531760,1.6446133524485500,0.7249241600201812,0.5785861117217885,1.5316524723479421,-2.0944170019868467,4.0852153400652176,1.1034140582251808,0.0000000000000000,2.8277226560043420,0.0000000000000000
-3.1450989212852734,1.7430808701199840,0.6627663112458454,0.6376813640864045,1.3304114209805922,-1.9629735032434128,4.1846679087292440,1.1034140582251808,0.0941384871914771,2.9178543413156510,0.0000000000000000
-3.1129945504490526,1.8366838044360116,0.5996866874031143,0.7101022377232817,1.1574061101285389,-1.5382801390205161,4.2836234539976124,1.1118244621119409,0.3814408324664301,3.0071951002090178,0.0000000000000000
-3.0667670588382845,1.9249547691972646,0.5444309881470417,0.8007747818154861,1.0269538424829066,-1.0810244935288682,4.3832665380551923,1.1454996797971611,0.6655956547606046,3.0954793498722570,0.0000000000000000
-3.0110233890232254,2.0080014680932528,0.4971787099848274,0.8878295307267914,0.9390884253876612,-0.6759708379176526,4.4832870905530227,1.2022129622799864,0.9252991340663325,3.1806861598584542,0.0000000000000000
-2.9497711304817602,2.0868624732276428,0.4480683535754421,0.9525993521162074,0.8868355989272982,-0.3704332166325780,4.5831414710640290,1.2767561827980893,1.1447967418825342,3.2612473727394327,0.0000000000000000
-2.8854741669967687,2.1628894235045992,0.3979474418294439,0.9996921699675935,0.8511574710936635,-0.3463287196112401,4.6827115302274400,1.3631145619322669,1.1214665172571450,3.3366829290917051,0.0000000000000000
-2.8192987742141478,2.2370628433214241,0.3645367185374656,1.0491934031772188,0.8418682306625266,0.1593028777439127,4.7821141399379359,1.4425791853442214,1.3049912839124045,3.4075407052171189,0.0000000000000000
-2.7520017608558058,2.3105227112508655,0.3600000000000000,1.1013284397006016,0.7957524260311980,-1.0862846023930046,4.8817396397016202,1.5300508238886863,0.0040867242803907,3.4745692284132450,0.0000000000000000
-2.6794599711058695,2.3786939601249251,0.3645173676596777,1.1513239808375073,0.7255756138898291,-0.3254485393213781,4.9812867663963321,1.5303166884674102,1.0516718237161626,3.5396248965921835,0.0000000000000000
-2.6043936551271005,2.4444977644775396,0.3657839025427951,1.1861269861221024,0.7243279529532241,0.3008186895162518,5.0811120761223805,1.5974467434212352,1.0484470641877550,3.6034566485132493,0.0000000000000000
-2.5301487004739212,2.5113339324034847,0.3622144222437023,1.2035381904944356,0.7351180837824103,-0.0846780953599803,5.1810089561261012,1.6617187725935891,-1.0923594050862846,3.6647587698770461,0.0000000000000000
-2.4557278375337126,2.5777883914739510,0.3600104812858341,1.2120363564418102,0.7207149880167163,-0.2040370802949154,5.2807819984326958,1.5947831316246679,-1.1931864832270518,3.7260349768261993,0.0000000000000000
-2.3803159644958409,2.6431144334938916,0.3610536374726370,1.2254461711063527,0.7103178903594430,-0.0043953797477685,5.3805539502080872,1.5183017316684537,-1.3675268621014445,3.7901334233233177,0.0000000000000000
-2.3041767319048505,2.7083457958046084,0.3654883005034957,1.2381048829682983,0.7047628914181849,-0.1064084430635862,5.4808151758561756,1.4251386984379710,-1.1958034682460916,3.8582586176520941,0.0000000000000000
-2.2275631367475275,2.7724125452962234,0.3727490680392201,1.2409915778603811,0.6851268071820498,-0.2868395499685234,5.5806860492545374,1.3387189534074806,-1.1938084118040047,3.9305278051275612,0.0000000000000000
-2.1494107009807051,2.8343507177655849,0.3731165424390954,1.2196679280261735,0.6545574188902458,-0.3262409985463449,5.6804063602505011,1.2466252620667668,-0.5965492399486553,4.0076705781471844,0.0000000000000000
-2.0688467051327457,2.8925997427040939,0.3600000000000000,1.1667527491584753,0.5851388213837651,-1.0683957144868101,5.7798221856168732,1.1981075385376221,0.0000000000000000,4.0890012048249096,0.0000000000000000
-1.9827918595021634,2.9419438389738972,0.3677989525304788,1.1134274198379435,0.4443819589006586,-1.7764319635721852,5.8790203524002722,1.1981075385376221,0.0000000000000000,4.1717969168896856,0.0000000000000000
-1.8896240449123118,2.9777330683614007,0.3990792518523895,1.0766877707985749,0.3001100015690628,-1.1191920453381206,5.9788257160617526,1.1981075385376221,0.5549663018721273,4.2550994255971260,0.0000000000000000
-1.7932566918577642,3.0013239341446036,0.4249032985779517,1.0360165692883505,0.1755132058333972,-1.3925735331779296,6.0780385966929540,1.2432140945246062,0.2339202408106296,4.3363774344326558,0.0000000000000000
-1.6944430754946900,3.0123198793401356,0.4409704302021857,0.9858028623207997,0.0506009523620967,-1.1237838212555609,6.1774621431469603,1.2617827248310909,0.4475462780086666,4.4157576122323059,0.0000000000000000
-1.5949082578913998,3.0121670694211913,0.4594946988860306,0.9435943859160879,-0.0498701612314598,-0.8951599578223592,6.2769970780501971,1.2966065802616187,0.6147454483933333,4.4935682368351397,0.0000000000000000
-1.4956252578760669,3.0031336388431651,0.4837105168733649,0.9091750058946123,-0.1278515768351722,-0.6696370031986960,6.3766901919550829,1.3430414736694110,0.7894913477988992,4.5691033929378033,0.0000000000000000
-1.3973008112936076,2.9874281841648616,0.5111996183019870,0.8721839273717823,-0.1861352749829333,-0.5011040562073023,6.4762610617032133,1.4003503419908974,0.9219673097110980,4.6416930020339171,0.0000000000000000
-1.2998609157000400,2.9667631348818762,0.5395616035792691,0.8226268889659083,-0.2297227390093559,-0.3741217601877466,6.5758681774889522,1.4644623892241624,1.0280233726749131,4.7112313105595796,0.0000000000000000
-1.2032414167718710,2.9424041619552814,0.5696721648279205,0.7760798147649214,-0.2628125010638980,-0.2900591891669896,6.6755109751974118,1.5328145156470081,1.0991176678991854,4.7777201942169558,0.0000000000000000
-1.1073488267808889,2.9152297278740691,0.6004385418166948,0.7411250722101058,-0.2883521112057452,-0.2224410984012052,6.7751796196289114,1.6026900746677815,1.1639025601606465,4.8412944238572919,0.0000000000000000
-1.0120672912957525,2.8859218954521189,0.6261997994927554,0.7133834347992116,-0.3074302003748692,-0.1603212019666576,6.8748667303588267,1.6735195374496683,1.2358785866407351,4.9021495720512362,0.0000000000000000
-0.9172674992294770,2.8550723001821070,0.6489724362384691,0.6902248702041057,-0.3209789131525220,-0.1114879406146942,6.9745597496938458,1.7455900371774509,1.3001687150187622,4.9604647662028549,0.0000000000000000
-0.8228238110340259,2.8231525538470601,0.6815210714129600,0.6754316813478871,-0.3302556132957080,-0.0746195313327387,7.0742516773813637,1.8183281411592414,1.3548730340822157,5.0164098932787216,0.0000000000000000
-0.7286223989520748,2.7905256871418036,0.7197360334644277,0.6669476441776083,-0.3360335664183440,-0.0412969650235369,7.1739432942266941,1.8911520815913274,1.4131195373986305,5.0701595352010118,0.0000000000000000
-0.6345549684221432,2.7575132377287361,0.7458262637274262,0.6608683144336748,-0.3384224230204453,-0.0066276859643370,7.2736353365508126,1.9642326087228001,1.4849582337946980,5.1218752784183224,0.0000000000000000
-0.5405144892970800,2.7244345431715655,0.7527507370040938,0.6554377529856217,-0.3375225172981868,0.0246819959125754,7.3733239103578345,2.0382042287636319,1.4396848029097613,5.1716892182028795,0.0000000000000000
-0.4463939067446520,2.6915937187621153,0.7557419478319417,0.6518512432067467,-0.3333299481037988,0.0594338361730066,7.4730094349233438,2.1074410899771445,1.3447270770829967,5.2197808984606535,0.0000000000000000
-0.3520814733096546,2.6593204905985526,0.7648659724763230,0.6518430220487270,-0.3254161148447925,0.0993483339866824,7.5726909094134829,2.1701144447666696,1.2247819314331405,5.2663876455527676,0.0000000000000000
-0.2574538435473993,2.6280058429297095,0.7718209300469421,0.6541281220146788,-0.3128634006776936,0.1525267957035727,7.6723653568563766,2.2256584706311586,1.0555588427871714,5.3117377804943375,0.0000000000000000
-0.1623722753615509,2.5981475934309946,0.7684228712981630,0.6525312777972933,-0.2947017042087281,0.2119477462849351,7.7720248755779098,2.2724323093111232,0.3547084679314249,5.3560497001941050,0.0000000000000000
-0.0666827782871767,2.5703777093769640,0.7672292156238127,0.6513718603183988,-0.2685036143845432,0.3139267874788406,7.8716624503713630,2.2879320757854376,-0.3104933243682916,5.3997468990929791,0.0000000000000000
0.0298204788105431,2.5455733751034550,0.7765856834105822,0.6555366185931889,-0.2333864302638806,0.3909945774778010,7.9713024705902518,2.2743698162726500,-0.1807907376561063,5.4434266127885325,0.0000000000000000
0.1272721183877190,2.5244823723697150,0.7598639070870032,0.6654304150036127,-0.1921320707552883,0.4365749880765337,8.0710103060526386,2.2664301345784765,-0.0905086430586629,5.4873430312793738,0.0000000000000000
0.2255136216426779,2.5076334834570502,0.7465371422115727,0.6818414574418183,-0.1470485089198081,0.4681076572499628,8.1706861708313578,2.2624461320419917,-0.0237355063559238,5.5313609548925093,0.0000000000000000
0.3243998539859339,2.4953733103540050,0.7554920154679450,0.6999438368906525,-0.0992816191943346,0.4907457402423855,8.2703295288215468,2.2614005238519703,0.0000000000000000,5.5754134463094642,0.0000000000000000
0.4237427793325056,2.4879376514169511,0.7597993609959923,0.6979617758334146,-0.0500054658531768,0.4986378066445853,8.3699503390985299,2.2614005238519703,0.0000000000000000,5.6194661513593829,0.0000000000000000
0.5233284611421526,2.4854150590070025,0.7505845230908494,0.6810313021662074,-0.0007994179394564,0.4893690044435489,8.4695679655205591,2.2614005238519703,0.0278823689585687,5.6635174484964086,0.0000000000000000
0.6229375847901373,2.4877245031262696,0.7511206019175064,0.6828560284424028,0.0467643260324526,0.4654780774357423,8.5692038578789838,2.2626286700876204,0.0982296095115115,5.7075648620241104,0.0000000000000000
0.7223618069701329,2.4946321157853486,0.7643809471289945,0.7010417250817955,0.0913713027487053,0.4297473857208384,8.6688677483747139,2.2669513423966694,0.2008816440442130,5.7515706595687135,0.0000000000000000
0.8213525772235812,2.5057748164196472,0.7861226953844833,0.7205497396244029,0.1321271288845285,0.3885653599413820,8.7684836726679549,2.2757615011428771,0.3162263944921871,5.7954281199560285,0.0000000000000000
0.9198475851426478,2.5207375463297237,0.8013980964126093,0.7273096909071195,0.1686738831244288,0.3451673730112683,8.8681087190736605,2.2895629601598788,0.3344467389222896,5.8390723547744559,0.0000000000000000
1.0178144998137946,2.5390039107470486,0.8096443055453649,0.7259424522638723,0.1984665954410243,0.2527714789079907,8.9677640071381202,2.3040740701538018,-0.7014484309714809,5.8824607580840027,0.0000000000000000
1.1153147759206714,2.5597372734336186,0.8254314505567757,0.7367046105112358,0.2190530205918437,0.1602763659099884,9.0674443771675808,2.2735250256910442,-1.0094086457525242,5.9260121342278600,0.0000000000000000
1.2124605895482137,2.5820914021547865,0.8501688628133657,0.7480456496535737,0.2324211611060862,0.1079320305348581,9.1671289606107571,2.2288272884393487,-1.1824473950015524,5.9702932461836360,0.0000000000000000
1.3093638050310985,2.6054869571662351,0.8805648484109614,0.7475160377609271,0.2404740955946774,0.0536316547724170,9.2668163979597846,2.1752978601737341,-1.3497560898333001,6.0155632755243866,0.0000000000000000
