# x,y,theta,velocity
2.160766363143920898e+00,-2.190451025962829590e-01,-3.094879388809204102e+00,2.000000000000000000e+00
2.061347723007202148e+00,-2.230275869369506836e-01,-3.107728719711303711e+00,2.000000000000000000e+00
1.961890101432800293e+00,-2.258826196193695068e-01,-3.117557764053344727e+00,2.000000000000000000e+00
1.862411856651306152e+00,-2.279008030891418457e-01,-3.124646663665771484e+00,2.000000000000000000e+00
1.762922883033752441e+00,-2.293062210083007812e-01,-3.130179882049560547e+00,2.000000000000000000e+00
1.640658020973205566e+00,-2.443096637725830078e-01,3.022480726242065430e+00,2.000000000000000000e+00
1.542050838470458984e+00,-2.304275631904602051e-01,2.983470678329467773e+00,2.000000000000000000e+00
1.444016456604003906e+00,-2.129545360803604126e-01,2.948136568069458008e+00,2.000000000000000000e+00
1.346635937690734863e+00,-1.921446174383163452e-01,2.915379524230957031e+00,2.000000000000000000e+00
1.249956250190734863e+00,-1.682911217212677002e-01,2.885611295700073242e+00,2.000000000000000000e+00
1.153986811637878418e+00,-1.417238563299179077e-01,2.859288454055786133e+00,2.000000000000000000e+00
1.058695793151855469e+00,-1.128158792853355408e-01,2.836635112762451172e+00,2.000000000000000000e+00
9.640215635299682617e-01,-8.192726224660873413e-02,2.817234039306640625e+00,2.000000000000000000e+00
8.699109554290771484e-01,-4.934008046984672546e-02,2.800306320190429688e+00,2.000000000000000000e+00
7.763289809226989746e-01,-1.526170596480369568e-02,2.785346031188964844e+00,2.000000000000000000e+00
6.832388043403625488e-01,2.012503333389759064e-02,2.772415876388549805e+00,2.000000000000000000e+00
5.905790925025939941e-01,5.660795047879219055e-02,2.762070655822753906e+00,2.000000000000000000e+00
4.982494711875915527e-01,9.390964359045028687e-02,2.755031108856201172e+00,2.000000000000000000e+00
4.061160087585449219e-01,1.316920220851898193e-01,2.751880884170532227e+00,2.000000000000000000e+00
3.140227794647216797e-01,1.695748567581176758e-01,2.752993583679199219e+00,2.000000000000000000e+00
2.218034863471984863e-01,2.071529179811477661e-01,2.758584976196289062e+00,2.000000000000000000e+00
1.292905509471893311e-01,2.440043091773986816e-01,2.768794775009155273e+00,2.000000000000000000e+00
3.632261231541633606e-02,2.796918153762817383e-01,2.783721208572387695e+00,2.000000000000000000e+00
-5.724808573722839355e-02,3.137649893760681152e-01,2.803348779678344727e+00,2.000000000000000000e+00
-1.515461951494216919e-01,3.457769453525543213e-01,2.827392578125000000e+00,2.000000000000000000e+00
-2.466613501310348511e-01,3.753176629543304443e-01,2.855307340621948242e+00,2.000000000000000000e+00
-3.426384329795837402e-01,4.020290970802307129e-01,2.886469841003417969e+00,2.000000000000000000e+00
-4.394699037075042725e-01,4.256032705307006836e-01,2.920269489288330078e+00,2.000000000000000000e+00
-5.370902419090270996e-01,4.457824826240539551e-01,2.956018924713134766e+00,2.000000000000000000e+00
-6.353831887245178223e-01,4.623828232288360596e-01,2.992741107940673828e+00,2.000000000000000000e+00
-7.342026233673095703e-01,4.753415882587432861e-01,3.029018640518188477e+00,2.000000000000000000e+00
-8.333948850631713867e-01,4.847684204578399658e-01,3.062962770462036133e+00,2.000000000000000000e+00
-9.328204989433288574e-01,4.909911751747131348e-01,3.092484712600708008e+00,2.000000000000000000e+00
-1.032368659973144531e+00,4.945474863052368164e-01,3.115967988967895508e+00,2.000000000000000000e+00
-1.131960272789001465e+00,4.960951805114746094e-01,3.132769584655761719e+00,2.000000000000000000e+00
-1.231548666954040527e+00,4.963048994541168213e-01,-3.139899730682373047e+00,2.000000000000000000e+00
-1.331119179725646973e+00,4.957580268383026123e-01,-3.134580850601196289e+00,2.000000000000000000e+00
-1.430683135986328125e+00,4.949085712432861328e-01,-3.133451223373413086e+00,2.000000000000000000e+00
-1.530260324478149414e+00,4.941367208957672119e-01,-3.136136054992675781e+00,2.000000000000000000e+00
-1.629861116409301758e+00,4.938217103481292725e-01,3.140207529067993164e+00,2.000000000000000000e+00
-1.729467988014221191e+00,4.944126307964324951e-01,3.128364801406860352e+00,2.000000000000000000e+00
-1.829033136367797852e+00,4.964564740657806396e-01,3.110774040222167969e+00,2.000000000000000000e+00
-1.928501129150390625e+00,5.005484819412231445e-01,3.087248802185058594e+00,2.000000000000000000e+00
-2.027835607528686523e+00,5.072708725929260254e-01,3.057583093643188477e+00,2.000000000000000000e+00
-2.126978397369384766e+00,5.172618627548217773e-01,3.019852161407470703e+00,2.000000000000000000e+00
-2.225709676742553711e+00,5.314798355102539062e-01,2.969831466674804688e+00,1.983738541603088379e+00
-2.323522329330444336e+00,5.513563752174377441e-01,2.903451681137084961e+00,1.941458225250244141e+00
-2.419598340988159180e+00,5.785458087921142578e-01,2.819569349288940430e+00,1.914197444915771484e+00
-2.512825965881347656e+00,6.145149469375610352e-01,2.720519304275512695e+00,1.899379253387451172e+00
-2.601829528808593750e+00,6.601598858833312988e-01,2.610657930374145508e+00,1.893242001533508301e+00
-2.685091733932495117e+00,7.156648635864257812e-01,2.494310617446899414e+00,1.892058491706848145e+00
-2.761171579360961914e+00,7.806105017662048340e-01,2.375231266021728516e+00,1.892058491706848145e+00
-2.828919887542724609e+00,8.541185855865478516e-01,2.256876945495605469e+00,1.892058491706848145e+00
-2.887584209442138672e+00,9.350041747093200684e-01,2.142050504684448242e+00,1.894350290298461914e+00
-2.936783075332641602e+00,1.021936297416687012e+00,2.032553195953369141e+00,1.901197195053100586e+00
-2.976453781127929688e+00,1.113586902618408203e+00,1.929345130920410156e+00,1.913552045822143555e+00
-3.006779670715332031e+00,1.208720326423645020e+00,1.832711458206176758e+00,1.931456685066223145e+00
-3.028099298477172852e+00,1.306240916252136230e+00,1.742360591888427734e+00,1.954321861267089844e+00
-3.040827035903930664e+00,1.405221700668334961e+00,1.657683730125427246e+00,1.981205463409423828e+00
-3.045403003692626953e+00,1.504890918731689453e+00,1.577963590621948242e+00,2.000000000000000000e+00
-3.042256116867065430e+00,1.604598879814147949e+00,1.502393126487731934e+00,2.000000000000000000e+00
-3.031776666641235352e+00,1.703788638114929199e+00,1.430137634277343750e+00,2.000000000000000000e+00
-3.014308929443359375e+00,1.801974773406982422e+00,1.360424160957336426e+00,2.000000000000000000e+00
-2.990151405334472656e+00,1.898725390434265137e+00,1.292565107345581055e+00,2.000000000000000000e+00
-2.959560155868530273e+00,1.993644714355468750e+00,1.225978255271911621e+00,2.000000000000000000e+00
-2.922761201858520508e+00,2.086354732513427734e+00,1.160190343856811523e+00,2.000000000000000000e+00
-2.879963636398315430e+00,2.176477670669555664e+00,1.094797492027282715e+00,2.000000000000000000e+00
-2.831371545791625977e+00,2.263625621795654297e+00,1.029437065124511719e+00,2.000000000000000000e+00
-2.777189016342163086e+00,2.347404479980468750e+00,9.637986421585083008e-01,2.000000000000000000e+00
-2.717620849609375000e+00,2.427423238754272461e+00,8.976545333862304688e-01,2.000000000000000000e+00
-2.652878999710083008e+00,2.503302335739135742e+00,8.308952450752258301e-01,2.000000000000000000e+00
-2.583191156387329102e+00,2.574677467346191406e+00,7.635439634323120117e-01,2.000000000000000000e+00
-2.508819818496704102e+00,2.641198635101318359e+00,6.957285404205322266e-01,2.000000000000000000e+00
-2.430075645446777344e+00,2.702531099319458008e+00,6.276291012763977051e-01,2.000000000000000000e+00
-2.347321510314941406e+00,2.758363962173461914e+00,5.594571232795715332e-01,2.000000000000000000e+00
-2.260960578918457031e+00,2.808429718017578125e+00,4.914907217025756836e-01,2.000000000000000000e+00
-2.171420335769653320e+00,2.852524757385253906e+00,4.241160154342651367e-01,2.000000000000000000e+00
-2.079140663146972656e+00,2.890524864196777344e+00,3.577852547168731689e-01,2.000000000000000000e+00
-1.984564304351806641e+00,2.922385692596435547e+00,2.929138541221618652e-01,2.000000000000000000e+00
-1.888132810592651367e+00,2.948130607604980469e+00,2.298216968774795532e-01,2.000000000000000000e+00
-1.790279984474182129e+00,2.967839479446411133e+00,1.687678247690200806e-01,2.000000000000000000e+00
-1.691424846649169922e+00,2.981647491455078125e+00,1.101080328226089478e-01,2.000000000000000000e+00
-1.591955184936523438e+00,2.989765405654907227e+00,5.446287989616394043e-02,2.000000000000000000e+00
-1.492211699485778809e+00,2.992507934570312500e+00,2.784350886940956116e-03,2.000000000000000000e+00
-1.392469644546508789e+00,2.990320920944213867e+00,-4.371634125709533691e-02,2.000000000000000000e+00
-1.292927265167236328e+00,2.983790397644042969e+00,-8.393789082765579224e-02,2.000000000000000000e+00
-1.193708419799804688e+00,2.973598003387451172e+00,-1.173153147101402283e-01,2.000000000000000000e+00
-1.094872474670410156e+00,2.960448265075683594e+00,-1.439694315195083618e-01,2.000000000000000000e+00
-9.964246749877929688e-01,2.944997310638427734e+00,-1.647155284881591797e-01,2.000000000000000000e+00
-8.983262181282043457e-01,2.927778005599975586e+00,-1.809859126806259155e-01,2.000000000000000000e+00
-8.005071878433227539e-01,2.909146547317504883e+00,-1.938603371381759644e-01,2.000000000000000000e+00
-7.029016613960266113e-01,2.889411211013793945e+00,-2.033310681581497192e-01,2.000000000000000000e+00
-6.054526567459106445e-01,2.868930101394653320e+00,-2.092498689889907837e-01,2.000000000000000000e+00
-5.080884695053100586e-01,2.848041057586669922e+00,-2.115213572978973389e-01,2.000000000000000000e+00
-4.107328951358795166e-01,2.827117443084716797e+00,-2.094883918762207031e-01,2.000000000000000000e+00
-3.335551023483276367e-01,2.823038339614868164e+00,-9.097339957952499390e-02,2.000000000000000000e+00
-2.344352453947067261e-01,2.814368486404418945e+00,-8.293133229017257690e-02,2.000000000000000000e+00
-1.352356225252151489e-01,2.806669473648071289e+00,-7.140507549047470093e-02,2.000000000000000000e+00
-3.594313561916351318e-02,2.800282955169677734e+00,-5.650838837027549744e-02,2.000000000000000000e+00
6.343878060579299927e-02,2.795480728149414062e+00,-4.010539129376411438e-02,2.000000000000000000e+00
1.628851890563964844e-01,2.792269468307495117e+00,-2.476391196250915527e-02,2.000000000000000000e+00
2.623678147792816162e-01,2.790493488311767578e+00,-1.123703643679618835e-02,2.000000000000000000e+00
3.618651032447814941e-01,2.789974212646484375e+00,5.062941345386207104e-04,2.000000000000000000e+00
4.613623321056365967e-01,2.790535211563110352e+00,1.047400012612342834e-02,2.000000000000000000e+00
5.608505010604858398e-01,2.791999816894531250e+00,1.867049559950828552e-02,2.000000000000000000e+00
6.603254079818725586e-01,2.794191837310791016e+00,2.509791404008865356e-02,2.000000000000000000e+00
7.597866654396057129e-01,2.796935081481933594e+00,2.975522913038730621e-02,2.000000000000000000e+00
8.592369556427001953e-01,2.800053358078002930e+00,3.263922035694122314e-02,2.000000000000000000e+00
9.586807489395141602e-01,2.803369998931884766e+00,3.374435007572174072e-02,2.000000000000000000e+00
1.058123826980590820e+00,2.806707859039306641e+00,3.306328877806663513e-02,2.000000000000000000e+00
1.157572031021118164e+00,2.809888839721679688e+00,3.058718144893646240e-02,2.000000000000000000e+00
1.257030367851257324e+00,2.812733888626098633e+00,2.630570717155933380e-02,2.000000000000000000e+00
1.356501936912536621e+00,2.815062761306762695e+00,2.020744234323501587e-02,2.000000000000000000e+00
1.455987215042114258e+00,2.816694021224975586e+00,1.228008978068828583e-02,2.000000000000000000e+00
1.555482864379882812e+00,2.817445278167724609e+00,2.510544843971729279e-03,2.000000000000000000e+00
1.654980659484863281e+00,2.817132234573364258e+00,-9.114919230341911316e-03,2.000000000000000000e+00
1.754466533660888672e+00,2.815569400787353516e+00,-2.261059172451496124e-02,2.000000000000000000e+00
1.853919148445129395e+00,2.812570810317993164e+00,-3.799131140112876892e-02,2.000000000000000000e+00
1.953309297561645508e+00,2.807948589324951172e+00,-5.527247861027717590e-02,2.000000000000000000e+00
2.052598237991333008e+00,2.801514387130737305e+00,-7.447017729282379150e-02,2.000000000000000000e+00
2.151737213134765625e+00,2.793079853057861328e+00,-9.560135751962661743e-02,2.000000000000000000e+00
2.250664949417114258e+00,2.782456159591674805e+00,-1.186840534210205078e-01,2.000000000000000000e+00
2.349308013916015625e+00,2.769454717636108398e+00,-1.437377631664276123e-01,2.000000000000000000e+00
2.447578668594360352e+00,2.753888845443725586e+00,-1.707837432622909546e-01,2.000000000000000000e+00
2.545373678207397461e+00,2.735572814941406250e+00,-1.998456269502639771e-01,2.000000000000000000e+00
2.642572879791259766e+00,2.714323759078979492e+00,-2.309499830007553101e-01,2.000000000000000000e+00
2.739038705825805664e+00,2.689962625503540039e+00,-2.641269564628601074e-01,2.000000000000000000e+00
2.834614038467407227e+00,2.662314891815185547e+00,-2.994110584259033203e-01,2.000000000000000000e+00
2.929120540618896484e+00,2.631211757659912109e+00,-3.368420004844665527e-01,2.000000000000000000e+00
3.022358417510986328e+00,2.596492052078247070e+00,-3.764656484127044678e-01,1.991998791694641113e+00
3.114104032516479492e+00,2.558003902435302734e+00,-4.183350205421447754e-01,1.966001510620117188e+00
3.204108953475952148e+00,2.515606164932250977e+00,-4.625117480754852295e-01,1.941059589385986328e+00
3.292098045349121094e+00,2.469171524047851562e+00,-5.090671181678771973e-01,1.917242169380187988e+00
3.377768039703369141e+00,2.418587684631347656e+00,-5.580836534500122070e-01,1.894641995429992676e+00
3.460786342620849609e+00,2.363762378692626953e+00,-6.096568703651428223e-01,1.873380899429321289e+00
3.540788888931274414e+00,2.304624795913696289e+00,-6.638979315757751465e-01,1.853616476058959961e+00
3.617378473281860352e+00,2.241131782531738281e+00,-7.209345102310180664e-01,1.835545897483825684e+00
3.690124273300170898e+00,2.173270702362060547e+00,-7.809125781059265137e-01,1.819416761398315430e+00
3.758559465408325195e+00,2.101066827774047852e+00,-8.440009355545043945e-01,1.805539846420288086e+00
3.822180271148681641e+00,2.024589300155639648e+00,-9.103876352310180664e-01,1.794285893440246582e+00
3.880444288253784180e+00,1.943958520889282227e+00,-9.803717732429504395e-01,1.786318898200988770e+00
3.932760000228881836e+00,1.859349966049194336e+00,-1.054343700408935547e+00,1.782377839088439941e+00
3.978563547134399414e+00,1.771047115325927734e+00,-1.130164504051208496e+00,1.778511881828308105e+00
4.017581462860107422e+00,1.679542660713195801e+00,-1.205093860626220703e+00,1.773871421813964844e+00
4.049694061279296875e+00,1.585391998291015625e+00,-1.278944253921508789e+00,1.767402768135070801e+00
4.074807643890380859e+00,1.489137291908264160e+00,-1.352134466171264648e+00,1.759420752525329590e+00
4.092832088470458984e+00,1.391306757926940918e+00,-1.425051689147949219e+00,1.750192403793334961e+00
4.103678703308105469e+00,1.292422890663146973e+00,-1.498078227043151855e+00,1.740005016326904297e+00
4.107260704040527344e+00,1.193010807037353516e+00,-1.571596384048461914e+00,1.729152083396911621e+00
4.103490352630615234e+00,1.093606114387512207e+00,-1.645997762680053711e+00,1.718096256256103516e+00
4.092281341552734375e+00,9.947643280029296875e-01,-1.721691012382507324e+00,1.707547545433044434e+00
4.073549270629882812e+00,8.970697522163391113e-01,-1.799111008644104004e+00,1.698025226593017578e+00
4.047216415405273438e+00,8.011457920074462891e-01,-1.878734469413757324e+00,1.690169215202331543e+00
4.013213634490966797e+00,7.076668143272399902e-01,-1.961094379425048828e+00,1.684755921363830566e+00
3.971491813659667969e+00,6.173712015151977539e-01,-2.046781063079833984e+00,1.682735443115234375e+00
3.922062397003173828e+00,5.310558080673217773e-01,-2.135301351547241211e+00,1.682735443115234375e+00
3.865203142166137695e+00,4.494419395923614502e-01,-2.222509145736694336e+00,1.682735443115234375e+00
3.801638603210449219e+00,3.729301691055297852e-01,-2.304619312286376953e+00,1.687354803085327148e+00
3.732202529907226562e+00,3.016992807388305664e-01,-2.381395578384399414e+00,1.696985483169555664e+00
3.657669782638549805e+00,2.358154803514480591e-01,-2.453235626220703125e+00,1.710761666297912598e+00
3.578738451004028320e+00,1.752664744853973389e-01,-2.520484924316406250e+00,1.727977752685546875e+00
3.496034860610961914e+00,1.199771240353584290e-01,-2.583428144454956055e+00,1.748104929924011230e+00
3.410118341445922852e+00,6.982208788394927979e-02,-2.642305135726928711e+00,1.770735383033752441e+00
3.321485519409179688e+00,2.463587000966072083e-02,-2.697314023971557617e+00,1.795563578605651855e+00
3.230576038360595703e+00,-1.577900908887386322e-02,-2.748620748519897461e+00,1.822361946105957031e+00
3.137776374816894531e+00,-5.164543166756629944e-02,-2.796362876892089844e+00,1.850966691970825195e+00
3.043424367904663086e+00,-8.320631086826324463e-02,-2.840653657913208008e+00,1.881265282630920410e+00
2.947812318801879883e+00,-1.107202172279357910e-01,-2.881587028503417969e+00,1.913187026977539062e+00
2.851192474365234375e+00,-1.344578117132186890e-01,-2.919239282608032227e+00,1.946695566177368164e+00
2.753778934478759766e+00,-1.546989232301712036e-01,-2.953672885894775391e+00,1.981783509254455566e+00
2.655752658843994141e+00,-1.717302501201629639e-01,-2.984937906265258789e+00,2.000000000000000000e+00
2.557262897491455078e+00,-1.858433932065963745e-01,-3.013075113296508789e+00,2.000000000000000000e+00
2.458432197570800781e+00,-1.973334401845932007e-01,-3.038115739822387695e+00,2.000000000000000000e+00
2.359358310699462891e+00,-2.064977586269378662e-01,-3.060084819793701172e+00,2.000000000000000000e+00
2.260117053985595703e+00,-2.136351317167282104e-01,-3.079001426696777344e+00,2.000000000000000000e+00
