# x,y,theta,velocity
-2.749714814126491547e-02,-1.927009671926498413e-01,3.104305267333984375e+00,2.000000000000000000e+00
-1.269267350435256958e-01,-1.889862269163131714e-01,3.104239702224731445e+00,2.000000000000000000e+00
-2.263566106557846069e-01,-1.852787733078002930e-01,3.104452371597290039e+00,2.000000000000000000e+00
-3.257877528667449951e-01,-1.816062778234481812e-01,3.104942560195922852e+00,2.000000000000000000e+00
-4.252209067344665527e-01,-1.779877394437789917e-01,3.105451583862304688e+00,2.000000000000000000e+00
-5.246541500091552734e-01,-1.743723750114440918e-01,3.104649305343627930e+00,2.000000000000000000e+00
-6.240795850753784180e-01,-1.705494970083236694e-01,3.101184129714965820e+00,2.000000000000000000e+00
-7.234848141670227051e-01,-1.662358641624450684e-01,3.094776153564453125e+00,2.000000000000000000e+00
-8.228527903556823730e-01,-1.611390709877014160e-01,3.085423946380615234e+00,2.000000000000000000e+00
-9.221595525741577148e-01,-1.549669951200485229e-01,3.073126554489135742e+00,2.000000000000000000e+00
-1.021371483802795410e+00,-1.474280059337615967e-01,3.057881593704223633e+00,2.000000000000000000e+00
-1.120443105697631836e+00,-1.382313519716262817e-01,3.039685249328613281e+00,2.000000000000000000e+00
-1.219314217567443848e+00,-1.270874887704849243e-01,3.018531560897827148e+00,2.000000000000000000e+00
-1.317907214164733887e+00,-1.137086898088455200e-01,2.994410991668701172e+00,2.000000000000000000e+00
-1.416124582290649414e+00,-9.780971705913543701e-02,2.967309474945068359e+00,2.000000000000000000e+00
-1.513846516609191895e+00,-7.910876721143722534e-02,2.937207698822021484e+00,2.000000000000000000e+00
-1.610927820205688477e+00,-5.732857435941696167e-02,2.904078483581542969e+00,2.000000000000000000e+00
-1.707195162773132324e+00,-3.219777345657348633e-02,2.867886066436767578e+00,2.000000000000000000e+00
-1.802444815635681152e+00,-3.452595556154847145e-03,2.828583717346191406e+00,2.000000000000000000e+00
-1.896438956260681152e+00,2.916109561920166016e-02,2.786111354827880859e+00,1.979170680046081543e+00
-1.988903284072875977e+00,6.588534265756607056e-02,2.740393400192260742e+00,1.957600116729736328e+00
-2.095140695571899414e+00,1.013212874531745911e-01,2.641056060791015625e+00,2.000000000000000000e+00
-2.181765317916870117e+00,1.509162932634353638e-01,2.603766918182373047e+00,2.000000000000000000e+00
-2.266564369201660156e+00,2.035717070102691650e-01,2.567389249801635742e+00,2.000000000000000000e+00
-2.349354267120361328e+00,2.593320906162261963e-01,2.529659271240234375e+00,2.000000000000000000e+00
-2.429942131042480469e+00,3.182302713394165039e-01,2.490581750869750977e+00,2.000000000000000000e+00
-2.508125305175781250e+00,3.802838623523712158e-01,2.450170516967773438e+00,2.000000000000000000e+00
-2.583693504333496094e+00,4.454948902130126953e-01,2.408453702926635742e+00,2.000000000000000000e+00
-2.656431674957275391e+00,5.138466358184814453e-01,2.365431785583496094e+00,2.000000000000000000e+00
-2.726153373718261719e+00,5.853468179702758789e-01,2.321168422698974609e+00,2.000000000000000000e+00
-2.792648315429687500e+00,6.599560976028442383e-01,2.275792598724365234e+00,2.000000000000000000e+00
-2.855666399002075195e+00,7.375600934028625488e-01,2.229351997375488281e+00,2.000000000000000000e+00
-2.914949655532836914e+00,8.180102705955505371e-01,2.181841135025024414e+00,2.000000000000000000e+00
-2.970269203186035156e+00,9.011673331260681152e-01,2.133312702178955078e+00,2.000000000000000000e+00
-3.021439313888549805e+00,9.869180321693420410e-01,2.083906888961791992e+00,2.000000000000000000e+00
-3.068296670913696289e+00,1.075144648551940918e+00,2.033762931823730469e+00,2.000000000000000000e+00
-3.110671043395996094e+00,1.165685892105102539e+00,1.982939243316650391e+00,2.000000000000000000e+00
-3.148380756378173828e+00,1.258327484130859375e+00,1.931424140930175781e+00,2.000000000000000000e+00
-3.181241750717163086e+00,1.352816700935363770e+00,1.879195332527160645e+00,2.000000000000000000e+00
-3.209083318710327148e+00,1.448879241943359375e+00,1.826265335083007812e+00,2.000000000000000000e+00
-3.231758117675781250e+00,1.546235322952270508e+00,1.772676467895507812e+00,2.000000000000000000e+00
-3.249143362045288086e+00,1.644610166549682617e+00,1.718429327011108398e+00,2.000000000000000000e+00
-3.261129617691040039e+00,1.743737101554870605e+00,1.663431406021118164e+00,2.000000000000000000e+00
-3.267607212066650391e+00,1.843358993530273438e+00,1.607518076896667480e+00,2.000000000000000000e+00
-3.268458127975463867e+00,1.943215727806091309e+00,1.550495028495788574e+00,2.000000000000000000e+00
-3.263553380966186523e+00,2.043015003204345703e+00,1.492145180702209473e+00,2.000000000000000000e+00
-3.252758264541625977e+00,2.142417192459106445e+00,1.432221055030822754e+00,2.000000000000000000e+00
-3.235936641693115234e+00,2.241029500961303711e+00,1.370438098907470703e+00,2.000000000000000000e+00
-3.212956666946411133e+00,2.338403940200805664e+00,1.306450486183166504e+00,2.000000000000000000e+00
-3.183691263198852539e+00,2.434044361114501953e+00,1.239846467971801758e+00,2.000000000000000000e+00
-3.148012399673461914e+00,2.527422904968261719e+00,1.170193076133728027e+00,2.000000000000000000e+00
-3.105787515640258789e+00,2.617994785308837891e+00,1.097093343734741211e+00,2.000000000000000000e+00
-3.056887865066528320e+00,2.705180644989013672e+00,1.020124673843383789e+00,2.000000000000000000e+00
-3.001221656799316406e+00,2.788288831710815430e+00,9.386306405067443848e-01,2.000000000000000000e+00
-2.938776969909667969e+00,2.866438150405883789e+00,8.520369529724121094e-01,2.000000000000000000e+00
-2.869677782058715820e+00,2.938646316528320312e+00,7.610849142074584961e-01,2.000000000000000000e+00
-2.794255018234252930e+00,3.004097700119018555e+00,6.686264276504516602e-01,2.000000000000000000e+00
-2.713099718093872070e+00,3.062346220016479492e+00,5.783785581588745117e-01,2.000000000000000000e+00
-2.627050876617431641e+00,3.113257646560668945e+00,4.929951727390289307e-01,2.000000000000000000e+00
-2.537091016769409180e+00,3.156905412673950195e+00,4.137116074562072754e-01,2.000000000000000000e+00
-2.444153547286987305e+00,3.193558931350708008e+00,3.410374224185943604e-01,2.000000000000000000e+00
-2.348961830139160156e+00,3.223673343658447266e+00,2.752092480659484863e-01,2.000000000000000000e+00
-2.252059459686279297e+00,3.247801542282104492e+00,2.160852402448654175e-01,2.000000000000000000e+00
-2.153917551040649414e+00,3.266487836837768555e+00,1.631056517362594604e-01,2.000000000000000000e+00
-2.054950475692749023e+00,3.280239105224609375e+00,1.155895888805389404e-01,2.000000000000000000e+00
-1.955487608909606934e+00,3.289527177810668945e+00,7.293118536472320557e-02,2.000000000000000000e+00
-1.855761408805847168e+00,3.294792175292968750e+00,3.461673110723495483e-02,2.000000000000000000e+00
-1.755928516387939453e+00,3.296437978744506836e+00,1.693513622740283608e-04,2.000000000000000000e+00
-1.656098961830139160e+00,3.294825792312622070e+00,-3.089083731174468994e-02,2.000000000000000000e+00
-1.556359410285949707e+00,3.290271043777465820e+00,-5.902158096432685852e-02,2.000000000000000000e+00
-1.456778883934020996e+00,3.283047914505004883e+00,-8.460892736911773682e-02,2.000000000000000000e+00
-1.357408881187438965e+00,3.273397922515869141e+00,-1.079560741782188416e-01,2.000000000000000000e+00
-1.258283615112304688e+00,3.261535644531250000e+00,-1.293081194162368774e-01,2.000000000000000000e+00
-1.159423828125000000e+00,3.247653245925903320e+00,-1.488805413246154785e-01,2.000000000000000000e+00
-1.060842156410217285e+00,3.231921195983886719e+00,-1.668698936700820923e-01,2.000000000000000000e+00
-9.625463485717773438e-01,3.214491844177246094e+00,-1.834532320499420166e-01,2.000000000000000000e+00
-8.645415902137756348e-01,3.195499897003173828e+00,-1.987840533256530762e-01,2.000000000000000000e+00
-7.668293714523315430e-01,3.175065755844116211e+00,-2.129907310009002686e-01,2.000000000000000000e+00
-6.694077253341674805e-01,3.153297901153564453e+00,-2.261792570352554321e-01,2.000000000000000000e+00
-5.722712874412536621e-01,3.130294561386108398e+00,-2.384401559829711914e-01,2.000000000000000000e+00
-4.754129052162170410e-01,3.106144905090332031e+00,-2.498536258935928345e-01,2.000000000000000000e+00
-3.788245916366577148e-01,3.080929756164550781e+00,-2.604911625385284424e-01,2.000000000000000000e+00
-2.824990153312683105e-01,3.054724216461181641e+00,-2.704165279865264893e-01,2.000000000000000000e+00
-1.864293366670608521e-01,3.027596473693847656e+00,-2.796862423419952393e-01,2.000000000000000000e+00
-9.060852229595184326e-02,2.999610424041748047e+00,-2.883495092391967773e-01,2.000000000000000000e+00
4.971378948539495468e-03,2.970824003219604492e+00,-2.964479029178619385e-01,2.000000000000000000e+00
1.003199890255928040e-01,2.941291570663452148e+00,-3.040157556533813477e-01,2.000000000000000000e+00
1.954488009214401245e-01,2.911063194274902344e+00,-3.110831677913665771e-01,2.000000000000000000e+00
2.903691828250885010e-01,2.880186557769775391e+00,-3.176776468753814697e-01,2.000000000000000000e+00
3.850911557674407959e-01,2.848706245422363281e+00,-3.238223195075988770e-01,2.000000000000000000e+00
4.796249568462371826e-01,2.816665172576904297e+00,-3.295358419418334961e-01,2.000000000000000000e+00
5.739810466766357422e-01,2.784104585647583008e+00,-3.346169888973236084e-01,2.000000000000000000e+00
6.603254079818725586e-01,2.794191837310791016e+00,2.509791404008865356e-02,2.000000000000000000e+00
7.597866654396057129e-01,2.796935081481933594e+00,2.975522913038730621e-02,2.000000000000000000e+00
8.592369556427001953e-01,2.800053358078002930e+00,3.263922035694122314e-02,2.000000000000000000e+00
9.586807489395141602e-01,2.803369998931884766e+00,3.374435007572174072e-02,2.000000000000000000e+00
1.058123826980590820e+00,2.806707859039306641e+00,3.306328877806663513e-02,2.000000000000000000e+00
1.157572031021118164e+00,2.809888839721679688e+00,3.058718144893646240e-02,2.000000000000000000e+00
1.257030367851257324e+00,2.812733888626098633e+00,2.630570717155933380e-02,2.000000000000000000e+00
1.356501936912536621e+00,2.815062761306762695e+00,2.020744234323501587e-02,2.000000000000000000e+00
1.455987215042114258e+00,2.816694021224975586e+00,1.228008978068828583e-02,2.000000000000000000e+00
1.555482864379882812e+00,2.817445278167724609e+00,2.510544843971729279e-03,2.000000000000000000e+00
1.654980659484863281e+00,2.817132234573364258e+00,-9.114919230341911316e-03,2.000000000000000000e+00
1.754466533660888672e+00,2.815569400787353516e+00,-2.261059172451496124e-02,2.000000000000000000e+00
1.853919148445129395e+00,2.812570810317993164e+00,-3.799131140112876892e-02,2.000000000000000000e+00
1.953309297561645508e+00,2.807948589324951172e+00,-5.527247861027717590e-02,2.000000000000000000e+00
2.052598237991333008e+00,2.801514387130737305e+00,-7.447017729282379150e-02,2.000000000000000000e+00
2.151737213134765625e+00,2.793079853057861328e+00,-9.560135751962661743e-02,2.000000000000000000e+00
2.250664949417114258e+00,2.782456159591674805e+00,-1.186840534210205078e-01,2.000000000000000000e+00
2.349308013916015625e+00,2.769454717636108398e+00,-1.437377631664276123e-01,2.000000000000000000e+00
2.447578668594360352e+00,2.753888845443725586e+00,-1.707837432622909546e-01,2.000000000000000000e+00
2.545373678207397461e+00,2.735572814941406250e+00,-1.998456269502639771e-01,2.000000000000000000e+00
2.642572879791259766e+00,2.714323759078979492e+00,-2.309499830007553101e-01,2.000000000000000000e+00
2.739038705825805664e+00,2.689962625503540039e+00,-2.641269564628601074e-01,2.000000000000000000e+00
2.834614038467407227e+00,2.662314891815185547e+00,-2.994110584259033203e-01,2.000000000000000000e+00
2.929120540618896484e+00,2.631211757659912109e+00,-3.368420004844665527e-01,2.000000000000000000e+00
3.022358417510986328e+00,2.596492052078247070e+00,-3.764656484127044678e-01,1.991998791694641113e+00
3.114104032516479492e+00,2.558003902435302734e+00,-4.183350205421447754e-01,1.966001510620117188e+00
3.204108953475952148e+00,2.515606164932250977e+00,-4.625117480754852295e-01,1.941059589385986328e+00
3.292098045349121094e+00,2.469171524047851562e+00,-5.090671181678771973e-01,1.917242169380187988e+00
3.377768039703369141e+00,2.418587684631347656e+00,-5.580836534500122070e-01,1.894641995429992676e+00
3.460786342620849609e+00,2.363762378692626953e+00,-6.096568703651428223e-01,1.873380899429321289e+00
3.540788888931274414e+00,2.304624795913696289e+00,-6.638979315757751465e-01,1.853616476058959961e+00
3.617378473281860352e+00,2.241131782531738281e+00,-7.209345102310180664e-01,1.835545897483825684e+00
3.690124273300170898e+00,2.173270702362060547e+00,-7.809125781059265137e-01,1.819416761398315430e+00
3.758559465408325195e+00,2.101066827774047852e+00,-8.440009355545043945e-01,1.805539846420288086e+00
3.822180271148681641e+00,2.024589300155639648e+00,-9.103876352310180664e-01,1.794285893440246582e+00
3.880444288253784180e+00,1.943958520889282227e+00,-9.803717732429504395e-01,1.786318898200988770e+00
3.932760000228881836e+00,1.859349966049194336e+00,-1.054343700408935547e+00,1.782377839088439941e+00
3.978563547134399414e+00,1.771047115325927734e+00,-1.130164504051208496e+00,1.778511881828308105e+00
4.017581462860107422e+00,1.679542660713195801e+00,-1.205093860626220703e+00,1.773871421813964844e+00
4.049694061279296875e+00,1.585391998291015625e+00,-1.278944253921508789e+00,1.767402768135070801e+00
4.074807643890380859e+00,1.489137291908264160e+00,-1.352134466171264648e+00,1.759420752525329590e+00
4.092832088470458984e+00,1.391306757926940918e+00,-1.425051689147949219e+00,1.750192403793334961e+00
4.103678703308105469e+00,1.292422890663146973e+00,-1.498078227043151855e+00,1.740005016326904297e+00
4.107260704040527344e+00,1.193010807037353516e+00,-1.571596384048461914e+00,1.729152083396911621e+00
4.103490352630615234e+00,1.093606114387512207e+00,-1.645997762680053711e+00,1.718096256256103516e+00
4.092281341552734375e+00,9.947643280029296875e-01,-1.721691012382507324e+00,1.707547545433044434e+00
4.073549270629882812e+00,8.970697522163391113e-01,-1.799111008644104004e+00,1.698025226593017578e+00
4.047216415405273438e+00,8.011457920074462891e-01,-1.878734469413757324e+00,1.690169215202331543e+00
4.013213634490966797e+00,7.076668143272399902e-01,-1.961094379425048828e+00,1.684755921363830566e+00
3.971491813659667969e+00,6.173712015151977539e-01,-2.046781063079833984e+00,1.682735443115234375e+00
3.922062397003173828e+00,5.310558080673217773e-01,-2.135301351547241211e+00,1.682735443115234375e+00
3.865203142166137695e+00,4.494419395923614502e-01,-2.222509145736694336e+00,1.682735443115234375e+00
3.801638603210449219e+00,3.729301691055297852e-01,-2.304619312286376953e+00,1.687354803085327148e+00
3.732202529907226562e+00,3.016992807388305664e-01,-2.381395578384399414e+00,1.696985483169555664e+00
3.657669782638549805e+00,2.358154803514480591e-01,-2.453235626220703125e+00,1.710761666297912598e+00
3.578738451004028320e+00,1.752664744853973389e-01,-2.520484924316406250e+00,1.727977752685546875e+00
3.496034860610961914e+00,1.199771240353584290e-01,-2.583428144454956055e+00,1.748104929924011230e+00
3.410118341445922852e+00,6.982208788394927979e-02,-2.642305135726928711e+00,1.770735383033752441e+00
3.321485519409179688e+00,2.463587000966072083e-02,-2.697314023971557617e+00,1.795563578605651855e+00
3.230576038360595703e+00,-1.577900908887386322e-02,-2.748620748519897461e+00,1.822361946105957031e+00
3.137776374816894531e+00,-5.164543166756629944e-02,-2.796362876892089844e+00,1.850966691970825195e+00
3.043424367904663086e+00,-8.320631086826324463e-02,-2.840653657913208008e+00,1.881265282630920410e+00
2.947812318801879883e+00,-1.107202172279357910e-01,-2.881587028503417969e+00,1.913187026977539062e+00
2.851192474365234375e+00,-1.344578117132186890e-01,-2.919239282608032227e+00,1.946695566177368164e+00
2.753778934478759766e+00,-1.546989232301712036e-01,-2.953672885894775391e+00,1.981783509254455566e+00
2.655752658843994141e+00,-1.717302501201629639e-01,-2.984937906265258789e+00,2.000000000000000000e+00
2.557262897491455078e+00,-1.858433932065963745e-01,-3.013075113296508789e+00,2.000000000000000000e+00
2.458432197570800781e+00,-1.973334401845932007e-01,-3.038115739822387695e+00,2.000000000000000000e+00
2.359358310699462891e+00,-2.064977586269378662e-01,-3.060084819793701172e+00,2.000000000000000000e+00
2.260117053985595703e+00,-2.136351317167282104e-01,-3.079001426696777344e+00,2.000000000000000000e+00
2.160766363143920898e+00,-2.190451025962829590e-01,-3.094879388809204102e+00,2.000000000000000000e+00
2.061347723007202148e+00,-2.230275869369506836e-01,-3.107728719711303711e+00,2.000000000000000000e+00
1.961890101432800293e+00,-2.258826196193695068e-01,-3.117557764053344727e+00,2.000000000000000000e+00
1.862411856651306152e+00,-2.279008030891418457e-01,-3.124646663665771484e+00,2.000000000000000000e+00
1.762922883033752441e+00,-2.293062210083007812e-01,-3.130179882049560547e+00,2.000000000000000000e+00
1.663427948951721191e+00,-2.301872372627258301e-01,-3.135249376296997070e+00,2.000000000000000000e+00
1.563929915428161621e+00,-2.305777668952941895e-01,-3.140039682388305664e+00,2.000000000000000000e+00
1.464431047439575195e+00,-2.305054962635040283e-01,3.138633251190185547e+00,2.000000000000000000e+00
1.364933490753173828e+00,-2.299981117248535156e-01,3.134399414062500000e+00,2.000000000000000000e+00
1.265438795089721680e+00,-2.290832847356796265e-01,3.130443334579467773e+00,2.000000000000000000e+00
1.165948271751403809e+00,-2.277886867523193359e-01,3.126765251159667969e+00,2.000000000000000000e+00
1.066462993621826172e+00,-2.261420041322708130e-01,3.123365402221679688e+00,2.000000000000000000e+00
9.669835567474365234e-01,-2.241709083318710327e-01,3.120243072509765625e+00,2.000000000000000000e+00
8.675104975700378418e-01,-2.219030559062957764e-01,3.117398977279663086e+00,2.000000000000000000e+00
7.680439352989196777e-01,-2.193661034107208252e-01,3.114832639694213867e+00,2.000000000000000000e+00
6.685837507247924805e-01,-2.165877223014831543e-01,3.112544298171997070e+00,2.000000000000000000e+00
5.691298246383666992e-01,-2.135955542325973511e-01,3.110533475875854492e+00,2.000000000000000000e+00
4.696816802024841309e-01,-2.104172408580780029e-01,3.108800888061523438e+00,2.000000000000000000e+00
3.702386915683746338e-01,-2.070804387331008911e-01,3.107345819473266602e+00,2.000000000000000000e+00
2.708001732826232910e-01,-2.036127597093582153e-01,3.106168985366821289e+00,2.000000000000000000e+00
1.713653206825256348e-01,-2.000418752431869507e-01,3.105269908905029297e+00,2.000000000000000000e+00
7.193320244550704956e-02,-1.963953971862792969e-01,3.104648590087890625e+00,2.000000000000000000e+00
