# x,y,theta,velocity
3.865203142166137695e+00,4.494419395923614502e-01,-2.222509145736694336e+00,1.682735443115234375e+00
3.801638603210449219e+00,3.729301691055297852e-01,-2.304619312286376953e+00,1.687354803085327148e+00
3.732202529907226562e+00,3.016992807388305664e-01,-2.381395578384399414e+00,1.696985483169555664e+00
3.657669782638549805e+00,2.358154803514480591e-01,-2.453235626220703125e+00,1.710761666297912598e+00
3.578738451004028320e+00,1.752664744853973389e-01,-2.520484924316406250e+00,1.727977752685546875e+00
3.494005680084228516e+00,1.320523172616958618e-01,-2.683912754058837891e+00,1.987645864486694336e+00
3.402392148971557617e+00,9.065316617488861084e-02,-2.759431600570678711e+00,2.000000000000000000e+00
3.307611465454101562e+00,5.713659152388572693e-02,-2.844163417816162109e+00,2.000000000000000000e+00
3.210329771041870117e+00,3.178185597062110901e-02,-2.928064346313476562e+00,2.000000000000000000e+00
3.111282587051391602e+00,1.456585340201854706e-02,-3.008766174316406250e+00,2.000000000000000000e+00
3.011170625686645508e+00,5.171591416001319885e-03,-3.084304094314575195e+00,2.000000000000000000e+00
2.910555839538574219e+00,3.053892171010375023e-03,3.129955053329467773e+00,2.000000000000000000e+00
2.809938907623291016e+00,7.513538002967834473e-03,3.068440914154052734e+00,2.000000000000000000e+00
2.709742307662963867e+00,1.777002960443496704e-02,3.014483690261840820e+00,2.000000000000000000e+00
2.610248088836669922e+00,3.303360193967819214e-02,2.967822790145874023e+00,2.000000000000000000e+00
2.511571407318115234e+00,5.255699902772903442e-02,2.928063154220581055e+00,2.000000000000000000e+00
2.413704872131347656e+00,7.565107196569442749e-02,2.894754886627197266e+00,2.000000000000000000e+00
2.316579580307006836e+00,1.016903147101402283e-01,2.867345809936523438e+00,2.000000000000000000e+00
2.220113515853881836e+00,1.301151961088180542e-01,2.845236778259277344e+00,2.000000000000000000e+00
2.124219894409179688e+00,1.604269444942474365e-01,2.827890157699584961e+00,2.000000000000000000e+00
2.028802156448364258e+00,1.921794414520263672e-01,2.814870834350585938e+00,2.000000000000000000e+00
1.933749794960021973e+00,2.249707877635955811e-01,2.805843114852905273e+00,2.000000000000000000e+00
1.838940978050231934e+00,2.584336996078491211e-01,2.800556659698486328e+00,2.000000000000000000e+00
1.744249463081359863e+00,2.922250330448150635e-01,2.798834562301635742e+00,2.000000000000000000e+00
1.649553179740905762e+00,3.260154128074645996e-01,2.800555944442749023e+00,2.000000000000000000e+00
1.554738998413085938e+00,3.594830036163330078e-01,2.805616617202758789e+00,2.000000000000000000e+00
1.459702849388122559e+00,3.923141658306121826e-01,2.813897848129272461e+00,2.000000000000000000e+00
1.364349007606506348e+00,4.242063164710998535e-01,2.825266361236572266e+00,2.000000000000000000e+00
1.268588542938232422e+00,4.548691511154174805e-01,2.839614868164062500e+00,2.000000000000000000e+00
1.172342658042907715e+00,4.840171635150909424e-01,2.856931447982788086e+00,2.000000000000000000e+00
1.075546264648437500e+00,5.113548636436462402e-01,2.877339601516723633e+00,2.000000000000000000e+00
9.781533479690551758e-01,5.365610718727111816e-01,2.901102304458618164e+00,2.000000000000000000e+00
8.801419138908386230e-01,5.592751502990722656e-01,2.928486824035644531e+00,2.000000000000000000e+00
7.815176248550415039e-01,5.791113376617431641e-01,2.959381341934204102e+00,2.000000000000000000e+00
6.823166608810424805e-01,5.957254171371459961e-01,2.992958784103393555e+00,2.000000000000000000e+00
5.826074481010437012e-01,6.088957786560058594e-01,3.027645111083984375e+00,2.000000000000000000e+00
4.824914634227752686e-01,6.185940504074096680e-01,3.061543226242065430e+00,2.000000000000000000e+00
3.820931911468505859e-01,6.249812245368957520e-01,3.093159675598144531e+00,2.000000000000000000e+00
2.815403044223785400e-01,6.283343434333801270e-01,3.121790409088134766e+00,2.000000000000000000e+00
1.809428483247756958e-01,6.289649605751037598e-01,-3.135746717453002930e+00,2.000000000000000000e+00
8.037888258695602417e-02,6.271583437919616699e-01,-3.112756252288818359e+00,2.000000000000000000e+00
-2.010387554764747620e-02,6.231659054756164551e-01,-3.092149972915649414e+00,2.000000000000000000e+00
-1.204798445105552673e-01,6.172192692756652832e-01,-3.073804855346679688e+00,2.000000000000000000e+00
-2.207372486591339111e-01,6.095445156097412109e-01,-3.057718992233276367e+00,2.000000000000000000e+00
-3.208718299865722656e-01,6.003721356391906738e-01,-3.043932199478149414e+00,2.000000000000000000e+00
-4.208852350711822510e-01,5.899356007575988770e-01,-3.032454967498779297e+00,2.000000000000000000e+00
-5.207850337028503418e-01,5.784670114517211914e-01,-3.023251533508300781e+00,2.000000000000000000e+00
-6.205847859382629395e-01,5.661920309066772461e-01,-3.016258716583251953e+00,2.000000000000000000e+00
-7.203041315078735352e-01,5.533286929130554199e-01,-3.011429548263549805e+00,2.000000000000000000e+00
-8.199684619903564453e-01,5.400920510292053223e-01,-3.008767366409301758e+00,2.000000000000000000e+00
-9.196085929870605469e-01,5.266992449760437012e-01,-3.008326053619384766e+00,2.000000000000000000e+00
-1.019260287284851074e+00,5.133747458457946777e-01,-3.010197401046752930e+00,2.000000000000000000e+00
-1.118960499763488770e+00,5.003535151481628418e-01,-3.014489650726318359e+00,2.000000000000000000e+00
-1.218742132186889648e+00,4.878826141357421875e-01,-3.021322727203369141e+00,2.000000000000000000e+00
-1.318629145622253418e+00,4.762229323387145996e-01,-3.030835628509521484e+00,2.000000000000000000e+00
-1.418634176254272461e+00,4.656521975994110107e-01,-3.043212890625000000e+00,2.000000000000000000e+00
-1.518762469291687012e+00,4.564701318740844727e-01,-3.058705568313598633e+00,2.000000000000000000e+00
-1.619018077850341797e+00,4.490047991275787354e-01,-3.077630281448364258e+00,2.000000000000000000e+00
-1.719409346580505371e+00,4.436187446117401123e-01,-3.100347518920898438e+00,2.000000000000000000e+00
-1.819937467575073242e+00,4.407131671905517578e-01,-3.127231597900390625e+00,2.000000000000000000e+00
-1.920565962791442871e+00,4.407297074794769287e-01,3.124508619308471680e+00,2.000000000000000000e+00
-2.021183729171752930e+00,4.441516101360321045e-01,3.088053941726684570e+00,2.000000000000000000e+00
-2.121586084365844727e+00,4.515023827552795410e-01,3.046098947525024414e+00,2.000000000000000000e+00
-2.221496582031250000e+00,4.633385837078094482e-01,2.998192310333251953e+00,2.000000000000000000e+00
-2.320610284805297852e+00,4.802397787570953369e-01,2.944032907485961914e+00,2.000000000000000000e+00
-2.418586969375610352e+00,5.027902722358703613e-01,2.883536338806152344e+00,2.000000000000000000e+00
-2.514927387237548828e+00,5.315281748771667480e-01,2.816889762878417969e+00,2.000000000000000000e+00
-2.609035253524780273e+00,5.668984651565551758e-01,2.754452705383300781e+00,1.992635369300842285e+00
-2.686650037765502930e+00,6.081669330596923828e-01,2.187568902969360352e+00,1.885917901992797852e+00
-2.741508960723876953e+00,6.911554336547851562e-01,2.122410535812377930e+00,1.879863977432250977e+00
-2.790893793106079102e+00,7.775140404701232910e-01,2.058268547058105469e+00,1.872026324272155762e+00
-2.834677457809448242e+00,8.668433427810668945e-01,1.994883775711059570e+00,1.862560510635375977e+00
-2.872740030288696289e+00,9.587565064430236816e-01,1.932004094123840332e+00,1.851621031761169434e+00
-2.904966115951538086e+00,1.052875161170959473e+00,1.869382143020629883e+00,1.839364171028137207e+00
-2.931241273880004883e+00,1.148825287818908691e+00,1.806771278381347656e+00,1.825949668884277344e+00
-2.951452016830444336e+00,1.246233344078063965e+00,1.743923544883728027e+00,1.811543107032775879e+00
-2.965482711791992188e+00,1.344721436500549316e+00,1.680585980415344238e+00,1.796318769454956055e+00
-2.973216533660888672e+00,1.443902373313903809e+00,1.616498470306396484e+00,1.780462384223937988e+00
-2.974534273147583008e+00,1.543375015258789062e+00,1.551390528678894043e+00,1.764174461364746094e+00
-2.969314813613891602e+00,1.642718791961669922e+00,1.484978318214416504e+00,1.747922420501708984e+00
-2.957437515258789062e+00,1.741487145423889160e+00,1.416961073875427246e+00,1.732053756713867188e+00
-2.938783645629882812e+00,1.839201211929321289e+00,1.347017288208007812e+00,1.716922640800476074e+00
-2.913240432739257812e+00,1.935343384742736816e+00,1.274801254272460938e+00,1.702943444252014160e+00
-2.880705833435058594e+00,2.029348373413085938e+00,1.199936509132385254e+00,1.690613627433776855e+00
-2.841096162796020508e+00,2.120595932006835938e+00,1.122017264366149902e+00,1.680515408515930176e+00
-2.794353961944580078e+00,2.208401441574096680e+00,1.040580272674560547e+00,1.673411726951599121e+00
-2.740462541580200195e+00,2.292006254196166992e+00,9.551848769187927246e-01,1.670025348663330078e+00
-2.679484844207763672e+00,2.370588779449462891e+00,8.660013675689697266e-01,1.670025348663330078e+00
-2.611719846725463867e+00,2.443400382995605469e+00,7.772997021675109863e-01,1.670025348663330078e+00
-2.537934541702270508e+00,2.510108947753906250e+00,6.938647627830505371e-01,1.674356818199157715e+00
-2.459022045135498047e+00,2.570672273635864258e+00,6.162366867065429688e-01,1.684267640113830566e+00
-2.375793218612670898e+00,2.625158071517944336e+00,5.438885688781738281e-01,1.698585748672485352e+00
-2.288961887359619141e+00,2.673702955245971680e+00,4.764650166034698486e-01,1.716577529907226562e+00
-2.199153900146484375e+00,2.716497182846069336e+00,4.136286377906799316e-01,1.737691640853881836e+00
-2.106914520263671875e+00,2.753767728805541992e+00,3.550677001476287842e-01,1.761420488357543945e+00
-2.012714624404907227e+00,2.785768032073974609e+00,3.005399107933044434e-01,1.787410974502563477e+00
-1.916961431503295898e+00,2.812772512435913086e+00,2.498511672019958496e-01,1.815407752990722656e+00
-1.820002555847167969e+00,2.835071086883544922e+00,2.028495222330093384e-01,1.845236301422119141e+00
-1.722133636474609375e+00,2.852965116500854492e+00,1.594177633523941040e-01,1.876786947250366211e+00
-1.623602867126464844e+00,2.866765499114990234e+00,1.194681525230407715e-01,1.910001993179321289e+00
-1.524615406990051270e+00,2.876789331436157227e+00,8.293846994638442993e-02,1.944868087768554688e+00
-1.425337910652160645e+00,2.883359432220458984e+00,4.978810623288154602e-02,1.981409430503845215e+00
-1.325901985168457031e+00,2.886802434921264648e+00,1.999466679990291595e-02,2.000000000000000000e+00
-1.226407766342163086e+00,2.887448549270629883e+00,-6.449051201343536377e-03,2.000000000000000000e+00
-1.126927495002746582e+00,2.885630369186401367e+00,-2.953802421689033508e-02,2.000000000000000000e+00
-1.027508378028869629e+00,2.881683588027954102e+00,-4.925780743360519409e-02,2.000000000000000000e+00
-9.281760454177856445e-01,2.875945091247558594e+00,-6.558723002672195435e-02,2.000000000000000000e+00
-8.289378881454467773e-01,2.868754625320434570e+00,-7.850106805562973022e-02,2.000000000000000000e+00
-7.297862768173217773e-01,2.860453605651855469e+00,-8.797253668308258057e-02,2.000000000000000000e+00
-6.307017207145690918e-01,2.851385593414306641e+00,-9.397577494382858276e-02,2.000000000000000000e+00
-5.316566228866577148e-01,2.841895580291748047e+00,-9.648779034614562988e-02,2.000000000000000000e+00
-4.326187968254089355e-01,2.832330465316772461e+00,-9.549098461866378784e-02,2.000000000000000000e+00
-3.335551023483276367e-01,2.823038339614868164e+00,-9.097339957952499390e-02,2.000000000000000000e+00
-2.344352453947067261e-01,2.814368486404418945e+00,-8.293133229017257690e-02,2.000000000000000000e+00
-1.352356225252151489e-01,2.806669473648071289e+00,-7.140507549047470093e-02,2.000000000000000000e+00
-3.594313561916351318e-02,2.800282955169677734e+00,-5.650838837027549744e-02,2.000000000000000000e+00
6.343878060579299927e-02,2.795480728149414062e+00,-4.010539129376411438e-02,2.000000000000000000e+00
1.628851890563964844e-01,2.792269468307495117e+00,-2.476391196250915527e-02,2.000000000000000000e+00
2.623678147792816162e-01,2.790493488311767578e+00,-1.123703643679618835e-02,2.000000000000000000e+00
3.618651032447814941e-01,2.789974212646484375e+00,5.062941345386207104e-04,2.000000000000000000e+00
4.613623321056365967e-01,2.790535211563110352e+00,1.047400012612342834e-02,2.000000000000000000e+00
5.608505010604858398e-01,2.791999816894531250e+00,1.867049559950828552e-02,2.000000000000000000e+00
6.603254079818725586e-01,2.794191837310791016e+00,2.509791404008865356e-02,2.000000000000000000e+00
7.597866654396057129e-01,2.796935081481933594e+00,2.975522913038730621e-02,2.000000000000000000e+00
8.592369556427001953e-01,2.800053358078002930e+00,3.263922035694122314e-02,2.000000000000000000e+00
9.586807489395141602e-01,2.803369998931884766e+00,3.374435007572174072e-02,2.000000000000000000e+00
1.058123826980590820e+00,2.806707859039306641e+00,3.306328877806663513e-02,2.000000000000000000e+00
1.157572031021118164e+00,2.809888839721679688e+00,3.058718144893646240e-02,2.000000000000000000e+00
1.257030367851257324e+00,2.812733888626098633e+00,2.630570717155933380e-02,2.000000000000000000e+00
1.356501936912536621e+00,2.815062761306762695e+00,2.020744234323501587e-02,2.000000000000000000e+00
1.455987215042114258e+00,2.816694021224975586e+00,1.228008978068828583e-02,2.000000000000000000e+00
1.555482864379882812e+00,2.817445278167724609e+00,2.510544843971729279e-03,2.000000000000000000e+00
1.654980659484863281e+00,2.817132234573364258e+00,-9.114919230341911316e-03,2.000000000000000000e+00
1.754466533660888672e+00,2.815569400787353516e+00,-2.261059172451496124e-02,2.000000000000000000e+00
1.853919148445129395e+00,2.812570810317993164e+00,-3.799131140112876892e-02,2.000000000000000000e+00
1.953309297561645508e+00,2.807948589324951172e+00,-5.527247861027717590e-02,2.000000000000000000e+00
2.052598237991333008e+00,2.801514387130737305e+00,-7.447017729282379150e-02,2.000000000000000000e+00
2.151737213134765625e+00,2.793079853057861328e+00,-9.560135751962661743e-02,2.000000000000000000e+00
2.250664949417114258e+00,2.782456159591674805e+00,-1.186840534210205078e-01,2.000000000000000000e+00
2.349308013916015625e+00,2.769454717636108398e+00,-1.437377631664276123e-01,2.000000000000000000e+00
2.447578668594360352e+00,2.753888845443725586e+00,-1.707837432622909546e-01,2.000000000000000000e+00
2.545373678207397461e+00,2.735572814941406250e+00,-1.998456269502639771e-01,2.000000000000000000e+00
2.642572879791259766e+00,2.714323759078979492e+00,-2.309499830007553101e-01,2.000000000000000000e+00
2.739038705825805664e+00,2.689962625503540039e+00,-2.641269564628601074e-01,2.000000000000000000e+00
2.834614038467407227e+00,2.662314891815185547e+00,-2.994110584259033203e-01,2.000000000000000000e+00
2.929120540618896484e+00,2.631211757659912109e+00,-3.368420004844665527e-01,2.000000000000000000e+00
3.022358417510986328e+00,2.596492052078247070e+00,-3.764656484127044678e-01,1.991998791694641113e+00
3.114104032516479492e+00,2.558003902435302734e+00,-4.183350205421447754e-01,1.966001510620117188e+00
3.204108953475952148e+00,2.515606164932250977e+00,-4.625117480754852295e-01,1.941059589385986328e+00
3.292098045349121094e+00,2.469171524047851562e+00,-5.090671181678771973e-01,1.917242169380187988e+00
3.377768039703369141e+00,2.418587684631347656e+00,-5.580836534500122070e-01,1.894641995429992676e+00
3.460786342620849609e+00,2.363762378692626953e+00,-6.096568703651428223e-01,1.873380899429321289e+00
3.540788888931274414e+00,2.304624795913696289e+00,-6.638979315757751465e-01,1.853616476058959961e+00
3.617378473281860352e+00,2.241131782531738281e+00,-7.209345102310180664e-01,1.835545897483825684e+00
3.690124273300170898e+00,2.173270702362060547e+00,-7.809125781059265137e-01,1.819416761398315430e+00
3.758559465408325195e+00,2.101066827774047852e+00,-8.440009355545043945e-01,1.805539846420288086e+00
3.822180271148681641e+00,2.024589300155639648e+00,-9.103876352310180664e-01,1.794285893440246582e+00
3.880444288253784180e+00,1.943958520889282227e+00,-9.803717732429504395e-01,1.786318898200988770e+00
3.932760000228881836e+00,1.859349966049194336e+00,-1.054343700408935547e+00,1.782377839088439941e+00
3.978563547134399414e+00,1.771047115325927734e+00,-1.130164504051208496e+00,1.778511881828308105e+00
4.017581462860107422e+00,1.679542660713195801e+00,-1.205093860626220703e+00,1.773871421813964844e+00
4.049694061279296875e+00,1.585391998291015625e+00,-1.278944253921508789e+00,1.767402768135070801e+00
4.074807643890380859e+00,1.489137291908264160e+00,-1.352134466171264648e+00,1.759420752525329590e+00
4.092832088470458984e+00,1.391306757926940918e+00,-1.425051689147949219e+00,1.750192403793334961e+00
4.103678703308105469e+00,1.292422890663146973e+00,-1.498078227043151855e+00,1.740005016326904297e+00
4.107260704040527344e+00,1.193010807037353516e+00,-1.571596384048461914e+00,1.729152083396911621e+00
4.103490352630615234e+00,1.093606114387512207e+00,-1.645997762680053711e+00,1.718096256256103516e+00
4.092281341552734375e+00,9.947643280029296875e-01,-1.721691012382507324e+00,1.707547545433044434e+00
4.073549270629882812e+00,8.970697522163391113e-01,-1.799111008644104004e+00,1.698025226593017578e+00
4.047216415405273438e+00,8.011457920074462891e-01,-1.878734469413757324e+00,1.690169215202331543e+00
4.013213634490966797e+00,7.076668143272399902e-01,-1.961094379425048828e+00,1.684755921363830566e+00
3.971491813659667969e+00,6.173712015151977539e-01,-2.046781063079833984e+00,1.682735443115234375e+00
3.922062397003173828e+00,5.310558080673217773e-01,-2.135301351547241211e+00,1.682735443115234375e+00
