# x,y,theta,velocity
-2.749714814126491547e-02,-1.927009671926498413e-01,3.104305267333984375e+00,2.000000000000000000e+00
-1.269267350435256958e-01,-1.889862269163131714e-01,3.104239702224731445e+00,2.000000000000000000e+00
-2.263566106557846069e-01,-1.852787733078002930e-01,3.104452371597290039e+00,2.000000000000000000e+00
-3.257877528667449951e-01,-1.816062778234481812e-01,3.104942560195922852e+00,2.000000000000000000e+00
-4.252209067344665527e-01,-1.779877394437789917e-01,3.105451583862304688e+00,2.000000000000000000e+00
-5.246541500091552734e-01,-1.743723750114440918e-01,3.104649305343627930e+00,2.000000000000000000e+00
-6.240795850753784180e-01,-1.705494970083236694e-01,3.101184129714965820e+00,2.000000000000000000e+00
-7.234848141670227051e-01,-1.662358641624450684e-01,3.094776153564453125e+00,2.000000000000000000e+00
-8.228527903556823730e-01,-1.611390709877014160e-01,3.085423946380615234e+00,2.000000000000000000e+00
-9.221595525741577148e-01,-1.549669951200485229e-01,3.073126554489135742e+00,2.000000000000000000e+00
-1.021371483802795410e+00,-1.474280059337615967e-01,3.057881593704223633e+00,2.000000000000000000e+00
-1.120443105697631836e+00,-1.382313519716262817e-01,3.039685249328613281e+00,2.000000000000000000e+00
-1.219314217567443848e+00,-1.270874887704849243e-01,3.018531560897827148e+00,2.000000000000000000e+00
-1.317907214164733887e+00,-1.137086898088455200e-01,2.994410991668701172e+00,2.000000000000000000e+00
-1.416124582290649414e+00,-9.780971705913543701e-02,2.967309474945068359e+00,2.000000000000000000e+00
-1.510840535163879395e+00,-9.461801499128341675e-02,2.903166770935058594e+00,2.000000000000000000e+00
-1.607562899589538574e+00,-6.849882751703262329e-02,2.854199886322021484e+00,2.000000000000000000e+00
-1.702942490577697754e+00,-3.783740103244781494e-02,2.807179689407348633e+00,2.000000000000000000e+00
-1.796784520149230957e+00,-2.751336898654699326e-03,2.760740518569946289e+00,2.000000000000000000e+00
-1.888908863067626953e+00,3.662377223372459412e-02,2.714982271194458008e+00,2.000000000000000000e+00
-1.979151725769042969e+00,8.013907074928283691e-02,2.669977664947509766e+00,2.000000000000000000e+00
-2.067364692687988281e+00,1.276360601186752319e-01,2.625763654708862305e+00,2.000000000000000000e+00
-2.153430700302124023e+00,1.789616495370864868e-01,2.582352876663208008e+00,2.000000000000000000e+00
-2.237246751785278320e+00,2.339636683464050293e-01,2.539737701416015625e+00,2.000000000000000000e+00
-2.318702936172485352e+00,2.924810647964477539e-01,2.497878074645996094e+00,2.000000000000000000e+00
-2.397685527801513672e+00,3.543463647365570068e-01,2.456714391708374023e+00,2.000000000000000000e+00
-2.474083900451660156e+00,4.193903505802154541e-01,2.416184186935424805e+00,2.000000000000000000e+00
-2.547795772552490234e+00,4.874465465545654297e-01,2.376216173171997070e+00,2.000000000000000000e+00
-2.618728876113891602e+00,5.583562254905700684e-01,2.336710691452026367e+00,2.000000000000000000e+00
-2.686797857284545898e+00,6.319734454154968262e-01,2.297528266906738281e+00,2.000000000000000000e+00
-2.751920938491821289e+00,7.081703543663024902e-01,2.258495092391967773e+00,2.000000000000000000e+00
-2.814017295837402344e+00,7.868406772613525391e-01,2.219424724578857422e+00,2.000000000000000000e+00
-2.872998476028442383e+00,8.678941726684570312e-01,2.180143356323242188e+00,2.000000000000000000e+00
-2.928758621215820312e+00,9.512391686439514160e-01,2.140477418899536133e+00,2.000000000000000000e+00
-2.981163501739501953e+00,1.036765217781066895e+00,2.100209474563598633e+00,2.000000000000000000e+00
-3.030046701431274414e+00,1.124342799186706543e+00,2.059042692184448242e+00,2.000000000000000000e+00
-3.075216293334960938e+00,1.213843226432800293e+00,2.016622543334960938e+00,2.000000000000000000e+00
-3.116464614868164062e+00,1.305164694786071777e+00,1.972583174705505371e+00,2.000000000000000000e+00
-3.153569221496582031e+00,1.398246049880981445e+00,1.926542997360229492e+00,2.000000000000000000e+00
-3.186265468597412109e+00,1.493026375770568848e+00,1.877986550331115723e+00,2.000000000000000000e+00
-3.214202404022216797e+00,1.589377880096435547e+00,1.826202273368835449e+00,2.000000000000000000e+00
-3.236940383911132812e+00,1.687102079391479492e+00,1.770386695861816406e+00,2.000000000000000000e+00
-3.253968000411987305e+00,1.785960674285888672e+00,1.709770917892456055e+00,2.000000000000000000e+00
-3.264719724655151367e+00,1.885701656341552734e+00,1.643580555915832520e+00,2.000000000000000000e+00
-3.268554687500000000e+00,1.986017942428588867e+00,1.570695638656616211e+00,1.989484786987304688e+00
-3.264699459075927734e+00,2.086431741714477539e+00,1.489227771759033203e+00,1.961849808692932129e+00
-3.252192020416259766e+00,2.186172723770141602e+00,1.396973967552185059e+00,1.944732785224914551e+00
-3.229980468750000000e+00,2.284154415130615234e+00,1.293414950370788574e+00,1.937999606132507324e+00
-3.197260618209838867e+00,2.379103422164916992e+00,1.181476473808288574e+00,1.937660336494445801e+00
-3.153847217559814453e+00,2.469727277755737305e+00,1.066582202911376953e+00,1.937660336494445801e+00
-3.100275993347167969e+00,2.554867982864379883e+00,9.538627862930297852e-01,1.937660336494445801e+00
-3.037587642669677734e+00,2.633637428283691406e+00,8.468025922775268555e-01,1.942240118980407715e+00
-2.967069625854492188e+00,2.705527067184448242e+00,7.476108670234680176e-01,1.953986167907714844e+00
-2.890076637268066406e+00,2.770401239395141602e+00,6.574534177780151367e-01,1.973891377449035645e+00
-2.807904005050659180e+00,2.828408002853393555e+00,5.764452219009399414e-01,2.000000000000000000e+00
-2.721667528152465820e+00,2.879883766174316406e+00,5.038654208183288574e-01,2.000000000000000000e+00
-2.632224321365356445e+00,2.925265789031982422e+00,4.387166202068328857e-01,2.000000000000000000e+00
-2.540208339691162109e+00,2.965027093887329102e+00,3.801027536392211914e-01,2.000000000000000000e+00
-2.446115970611572266e+00,2.999622106552124023e+00,3.271628916263580322e-01,2.000000000000000000e+00
-2.350372314453125000e+00,3.029449462890625000e+00,2.790210545063018799e-01,2.000000000000000000e+00
-2.253345966339111328e+00,3.054849624633789062e+00,2.348832190036773682e-01,2.000000000000000000e+00
-2.155343294143676758e+00,3.076119899749755859e+00,1.941040009260177612e-01,2.000000000000000000e+00
-2.056605815887451172e+00,3.093524694442749023e+00,1.561768651008605957e-01,2.000000000000000000e+00
-1.957319021224975586e+00,3.107300519943237305e+00,1.206825450062751770e-01,2.000000000000000000e+00
-1.857627630233764648e+00,3.117655038833618164e+00,8.724671602249145508e-02,2.000000000000000000e+00
-1.757652282714843750e+00,3.124765157699584961e+00,5.552212148904800415e-02,2.000000000000000000e+00
-1.657500624656677246e+00,3.128777980804443359e+00,2.519330009818077087e-02,2.000000000000000000e+00
-1.557270288467407227e+00,3.129814624786376953e+00,-4.010892473161220551e-03,2.000000000000000000e+00
-1.457050442695617676e+00,3.127974033355712891e+00,-3.231464698910713196e-02,2.000000000000000000e+00
-1.356922268867492676e+00,3.123338222503662109e+00,-5.990669131278991699e-02,2.000000000000000000e+00
-1.256960868835449219e+00,3.115972995758056641e+00,-8.695975691080093384e-02,2.000000000000000000e+00
-1.157236576080322266e+00,3.105929613113403320e+00,-1.136414334177970886e-01,2.000000000000000000e+00
-1.057816624641418457e+00,3.093244075775146484e+00,-1.401159316301345825e-01,2.000000000000000000e+00
-9.587674736976623535e-01,3.077937602996826172e+00,-1.665426343679428101e-01,2.000000000000000000e+00
-8.601568937301635742e-01,3.060017585754394531e+00,-1.930739730596542358e-01,2.000000000000000000e+00
-7.620579600334167480e-01,3.039479017257690430e+00,-2.198567986488342285e-01,2.000000000000000000e+00
-6.645525097846984863e-01,3.016305923461914062e+00,-2.470380067825317383e-01,2.000000000000000000e+00
-5.677325129508972168e-01,2.990472078323364258e+00,-2.747744917869567871e-01,2.000000000000000000e+00
-4.716925919055938721e-01,2.961937665939331055e+00,-3.032348155975341797e-01,2.000000000000000000e+00
-3.765208423137664795e-01,2.930644989013671875e+00,-3.325928449630737305e-01,2.000000000000000000e+00
-2.823241353034973145e-01,2.896525144577026367e+00,-3.630381524562835693e-01,2.000000000000000000e+00
-1.892323940992355347e-01,2.859498739242553711e+00,-3.947781026363372803e-01,2.000000000000000000e+00
-9.739039093255996704e-02,2.819472312927246094e+00,-4.262286126613616943e-01,2.000000000000000000e+00
-3.594313561916351318e-02,2.800282955169677734e+00,-5.650838837027549744e-02,2.000000000000000000e+00
6.343878060579299927e-02,2.795480728149414062e+00,-4.010539129376411438e-02,2.000000000000000000e+00
1.628851890563964844e-01,2.792269468307495117e+00,-2.476391196250915527e-02,2.000000000000000000e+00
2.623678147792816162e-01,2.790493488311767578e+00,-1.123703643679618835e-02,2.000000000000000000e+00
3.618651032447814941e-01,2.789974212646484375e+00,5.062941345386207104e-04,2.000000000000000000e+00
4.613623321056365967e-01,2.790535211563110352e+00,1.047400012612342834e-02,2.000000000000000000e+00
5.608505010604858398e-01,2.791999816894531250e+00,1.867049559950828552e-02,2.000000000000000000e+00
6.603254079818725586e-01,2.794191837310791016e+00,2.509791404008865356e-02,2.000000000000000000e+00
7.597866654396057129e-01,2.796935081481933594e+00,2.975522913038730621e-02,2.000000000000000000e+00
8.592369556427001953e-01,2.800053358078002930e+00,3.263922035694122314e-02,2.000000000000000000e+00
9.586807489395141602e-01,2.803369998931884766e+00,3.374435007572174072e-02,2.000000000000000000e+00
1.058123826980590820e+00,2.806707859039306641e+00,3.306328877806663513e-02,2.000000000000000000e+00
1.157572031021118164e+00,2.809888839721679688e+00,3.058718144893646240e-02,2.000000000000000000e+00
1.257030367851257324e+00,2.812733888626098633e+00,2.630570717155933380e-02,2.000000000000000000e+00
1.356501936912536621e+00,2.815062761306762695e+00,2.020744234323501587e-02,2.000000000000000000e+00
1.455987215042114258e+00,2.816694021224975586e+00,1.228008978068828583e-02,2.000000000000000000e+00
1.555482864379882812e+00,2.817445278167724609e+00,2.510544843971729279e-03,2.000000000000000000e+00
1.654980659484863281e+00,2.817132234573364258e+00,-9.114919230341911316e-03,2.000000000000000000e+00
1.754466533660888672e+00,2.815569400787353516e+00,-2.261059172451496124e-02,2.000000000000000000e+00
1.853919148445129395e+00,2.812570810317993164e+00,-3.799131140112876892e-02,2.000000000000000000e+00
1.953309297561645508e+00,2.807948589324951172e+00,-5.527247861027717590e-02,2.000000000000000000e+00
2.052598237991333008e+00,2.801514387130737305e+00,-7.447017729282379150e-02,2.000000000000000000e+00
2.151737213134765625e+00,2.793079853057861328e+00,-9.560135751962661743e-02,2.000000000000000000e+00
2.250664949417114258e+00,2.782456159591674805e+00,-1.186840534210205078e-01,2.000000000000000000e+00
2.349308013916015625e+00,2.769454717636108398e+00,-1.437377631664276123e-01,2.000000000000000000e+00
2.447578668594360352e+00,2.753888845443725586e+00,-1.707837432622909546e-01,2.000000000000000000e+00
2.545373678207397461e+00,2.735572814941406250e+00,-1.998456269502639771e-01,2.000000000000000000e+00
2.642572879791259766e+00,2.714323759078979492e+00,-2.309499830007553101e-01,2.000000000000000000e+00
2.739038705825805664e+00,2.689962625503540039e+00,-2.641269564628601074e-01,2.000000000000000000e+00
2.834614038467407227e+00,2.662314891815185547e+00,-2.994110584259033203e-01,2.000000000000000000e+00
2.929120540618896484e+00,2.631211757659912109e+00,-3.368420004844665527e-01,2.000000000000000000e+00
3.022358417510986328e+00,2.596492052078247070e+00,-3.764656484127044678e-01,1.991998791694641113e+00
3.114104032516479492e+00,2.558003902435302734e+00,-4.183350205421447754e-01,1.966001510620117188e+00
3.204108953475952148e+00,2.515606164932250977e+00,-4.625117480754852295e-01,1.941059589385986328e+00
3.292098045349121094e+00,2.469171524047851562e+00,-5.090671181678771973e-01,1.917242169380187988e+00
3.377768039703369141e+00,2.418587684631347656e+00,-5.580836534500122070e-01,1.894641995429992676e+00
3.460786342620849609e+00,2.363762378692626953e+00,-6.096568703651428223e-01,1.873380899429321289e+00
3.540788888931274414e+00,2.304624795913696289e+00,-6.638979315757751465e-01,1.853616476058959961e+00
3.617378473281860352e+00,2.241131782531738281e+00,-7.209345102310180664e-01,1.835545897483825684e+00
3.690124273300170898e+00,2.173270702362060547e+00,-7.809125781059265137e-01,1.819416761398315430e+00
3.758559465408325195e+00,2.101066827774047852e+00,-8.440009355545043945e-01,1.805539846420288086e+00
3.822180271148681641e+00,2.024589300155639648e+00,-9.103876352310180664e-01,1.794285893440246582e+00
3.880444288253784180e+00,1.943958520889282227e+00,-9.803717732429504395e-01,1.786318898200988770e+00
3.932760000228881836e+00,1.859349966049194336e+00,-1.054343700408935547e+00,1.782377839088439941e+00
3.978563547134399414e+00,1.771047115325927734e+00,-1.130164504051208496e+00,1.778511881828308105e+00
4.017581462860107422e+00,1.679542660713195801e+00,-1.205093860626220703e+00,1.773871421813964844e+00
4.049694061279296875e+00,1.585391998291015625e+00,-1.278944253921508789e+00,1.767402768135070801e+00
4.074807643890380859e+00,1.489137291908264160e+00,-1.352134466171264648e+00,1.759420752525329590e+00
4.092832088470458984e+00,1.391306757926940918e+00,-1.425051689147949219e+00,1.750192403793334961e+00
4.103678703308105469e+00,1.292422890663146973e+00,-1.498078227043151855e+00,1.740005016326904297e+00
4.107260704040527344e+00,1.193010807037353516e+00,-1.571596384048461914e+00,1.729152083396911621e+00
4.103490352630615234e+00,1.093606114387512207e+00,-1.645997762680053711e+00,1.718096256256103516e+00
4.092281341552734375e+00,9.947643280029296875e-01,-1.721691012382507324e+00,1.707547545433044434e+00
4.073549270629882812e+00,8.970697522163391113e-01,-1.799111008644104004e+00,1.698025226593017578e+00
4.047216415405273438e+00,8.011457920074462891e-01,-1.878734469413757324e+00,1.690169215202331543e+00
4.013213634490966797e+00,7.076668143272399902e-01,-1.961094379425048828e+00,1.684755921363830566e+00
3.971491813659667969e+00,6.173712015151977539e-01,-2.046781063079833984e+00,1.682735443115234375e+00
3.922062397003173828e+00,5.310558080673217773e-01,-2.135301351547241211e+00,1.682735443115234375e+00
3.865203142166137695e+00,4.494419395923614502e-01,-2.222509145736694336e+00,1.682735443115234375e+00
3.801638603210449219e+00,3.729301691055297852e-01,-2.304619312286376953e+00,1.687354803085327148e+00
3.732202529907226562e+00,3.016992807388305664e-01,-2.381395578384399414e+00,1.696985483169555664e+00
3.657669782638549805e+00,2.358154803514480591e-01,-2.453235626220703125e+00,1.710761666297912598e+00
3.578738451004028320e+00,1.752664744853973389e-01,-2.520484924316406250e+00,1.727977752685546875e+00
3.496034860610961914e+00,1.199771240353584290e-01,-2.583428144454956055e+00,1.748104929924011230e+00
3.410118341445922852e+00,6.982208788394927979e-02,-2.642305135726928711e+00,1.770735383033752441e+00
3.321485519409179688e+00,2.463587000966072083e-02,-2.697314023971557617e+00,1.795563578605651855e+00
3.230576038360595703e+00,-1.577900908887386322e-02,-2.748620748519897461e+00,1.822361946105957031e+00
3.137776374816894531e+00,-5.164543166756629944e-02,-2.796362876892089844e+00,1.850966691970825195e+00
3.043424367904663086e+00,-8.320631086826324463e-02,-2.840653657913208008e+00,1.881265282630920410e+00
2.947812318801879883e+00,-1.107202172279357910e-01,-2.881587028503417969e+00,1.913187026977539062e+00
2.851192474365234375e+00,-1.344578117132186890e-01,-2.919239282608032227e+00,1.946695566177368164e+00
2.753778934478759766e+00,-1.546989232301712036e-01,-2.953672885894775391e+00,1.981783509254455566e+00
2.655752658843994141e+00,-1.717302501201629639e-01,-2.984937906265258789e+00,2.000000000000000000e+00
2.557262897491455078e+00,-1.858433932065963745e-01,-3.013075113296508789e+00,2.000000000000000000e+00
2.458432197570800781e+00,-1.973334401845932007e-01,-3.038115739822387695e+00,2.000000000000000000e+00
2.359358310699462891e+00,-2.064977586269378662e-01,-3.060084819793701172e+00,2.000000000000000000e+00
2.260117053985595703e+00,-2.136351317167282104e-01,-3.079001426696777344e+00,2.000000000000000000e+00
2.160766363143920898e+00,-2.190451025962829590e-01,-3.094879388809204102e+00,2.000000000000000000e+00
2.061347723007202148e+00,-2.230275869369506836e-01,-3.107728719711303711e+00,2.000000000000000000e+00
1.961890101432800293e+00,-2.258826196193695068e-01,-3.117557764053344727e+00,2.000000000000000000e+00
1.862411856651306152e+00,-2.279008030891418457e-01,-3.124646663665771484e+00,2.000000000000000000e+00
1.762922883033752441e+00,-2.293062210083007812e-01,-3.130179882049560547e+00,2.000000000000000000e+00
1.663427948951721191e+00,-2.301872372627258301e-01,-3.135249376296997070e+00,2.000000000000000000e+00
1.563929915428161621e+00,-2.305777668952941895e-01,-3.140039682388305664e+00,2.000000000000000000e+00
1.464431047439575195e+00,-2.305054962635040283e-01,3.138633251190185547e+00,2.000000000000000000e+00
1.364933490753173828e+00,-2.299981117248535156e-01,3.134399414062500000e+00,2.000000000000000000e+00
1.265438795089721680e+00,-2.290832847356796265e-01,3.130443334579467773e+00,2.000000000000000000e+00
1.165948271751403809e+00,-2.277886867523193359e-01,3.126765251159667969e+00,2.000000000000000000e+00
1.066462993621826172e+00,-2.261420041322708130e-01,3.123365402221679688e+00,2.000000000000000000e+00
9.669835567474365234e-01,-2.241709083318710327e-01,3.120243072509765625e+00,2.000000000000000000e+00
8.675104975700378418e-01,-2.219030559062957764e-01,3.117398977279663086e+00,2.000000000000000000e+00
7.680439352989196777e-01,-2.193661034107208252e-01,3.114832639694213867e+00,2.000000000000000000e+00
6.685837507247924805e-01,-2.165877223014831543e-01,3.112544298171997070e+00,2.000000000000000000e+00
5.691298246383666992e-01,-2.135955542325973511e-01,3.110533475875854492e+00,2.000000000000000000e+00
4.696816802024841309e-01,-2.104172408580780029e-01,3.108800888061523438e+00,2.000000000000000000e+00
3.702386915683746338e-01,-2.070804387331008911e-01,3.107345819473266602e+00,2.000000000000000000e+00
2.708001732826232910e-01,-2.036127597093582153e-01,3.106168985366821289e+00,2.000000000000000000e+00
1.713653206825256348e-01,-2.000418752431869507e-01,3.105269908905029297e+00,2.000000000000000000e+00
7.193320244550704956e-02,-1.963953971862792969e-01,3.104648590087890625e+00,2.000000000000000000e+00
