# x,y,theta,velocity
2.151737213134765625e+00,2.793079853057861328e+00,-9.560135751962661743e-02,2.000000000000000000e+00
2.250664949417114258e+00,2.782456159591674805e+00,-1.186840534210205078e-01,2.000000000000000000e+00
2.349308013916015625e+00,2.769454717636108398e+00,-1.437377631664276123e-01,2.000000000000000000e+00
2.447578668594360352e+00,2.753888845443725586e+00,-1.707837432622909546e-01,2.000000000000000000e+00
2.545373678207397461e+00,2.735572814941406250e+00,-1.998456269502639771e-01,2.000000000000000000e+00
2.647446155548095703e+00,2.736528873443603516e+00,-3.281958103179931641e-01,2.000000000000000000e+00
2.742045164108276367e+00,2.702461719512939453e+00,-3.600523769855499268e-01,2.000000000000000000e+00
2.835624694824218750e+00,2.665686607360839844e+00,-3.891186118125915527e-01,2.000000000000000000e+00
2.928084373474121094e+00,2.626180887222290039e+00,-4.187734425067901611e-01,2.000000000000000000e+00
3.019319295883178711e+00,2.583923816680908203e+00,-4.490387737751007080e-01,2.000000000000000000e+00
3.109219789505004883e+00,2.538897275924682617e+00,-4.799428880214691162e-01,2.000000000000000000e+00
3.197669744491577148e+00,2.491085529327392578e+00,-5.115160942077636719e-01,2.000000000000000000e+00
3.284548044204711914e+00,2.440476655960083008e+00,-5.437834262847900391e-01,2.000000000000000000e+00
3.369736433029174805e+00,2.387056589126586914e+00,-5.768306851387023926e-01,2.000000000000000000e+00
3.453117609024047852e+00,2.330796957015991211e+00,-6.107707023620605469e-01,2.000000000000000000e+00
3.534559965133666992e+00,2.271669387817382812e+00,-6.456406116485595703e-01,2.000000000000000000e+00
3.613903045654296875e+00,2.209669589996337891e+00,-6.814335584640502930e-01,2.000000000000000000e+00
3.690951585769653320e+00,2.144830226898193359e+00,-7.182118892669677734e-01,2.000000000000000000e+00
3.765489816665649414e+00,2.077196598052978516e+00,-7.561681866645812988e-01,2.000000000000000000e+00
3.837305307388305664e+00,2.006791591644287109e+00,-7.955791354179382324e-01,2.000000000000000000e+00
3.906212329864501953e+00,1.933579087257385254e+00,-8.366751670837402344e-01,2.000000000000000000e+00
3.972044944763183594e+00,1.857473611831665039e+00,-8.795062303543090820e-01,2.000000000000000000e+00
4.034567832946777344e+00,1.778468132019042969e+00,-9.241429567337036133e-01,2.000000000000000000e+00
4.093454360961914062e+00,1.696653008460998535e+00,-9.709331393241882324e-01,2.000000000000000000e+00
4.148316383361816406e+00,1.612153172492980957e+00,-1.020459175109863281e+00,2.000000000000000000e+00
4.198736667633056641e+00,1.525062680244445801e+00,-1.073362469673156738e+00,2.000000000000000000e+00
4.244293689727783203e+00,1.435391664505004883e+00,-1.130161285400390625e+00,2.000000000000000000e+00
4.284541130065917969e+00,1.343103408813476562e+00,-1.191264867782592773e+00,2.000000000000000000e+00
4.318941116333007812e+00,1.248244285583496094e+00,-1.257285118103027344e+00,2.000000000000000000e+00
4.346796035766601562e+00,1.151078224182128906e+00,-1.329288840293884277e+00,2.000000000000000000e+00
4.367249488830566406e+00,1.052120447158813477e+00,-1.408547163009643555e+00,2.000000000000000000e+00
4.379377365112304688e+00,9.520354270935058594e-01,-1.495901584625244141e+00,2.000000000000000000e+00
4.382302284240722656e+00,8.515077233314514160e-01,-1.591045141220092773e+00,2.000000000000000000e+00
4.375309467315673828e+00,7.511695623397827148e-01,-1.692062020301818848e+00,2.000000000000000000e+00
4.357973575592041016e+00,6.518667340278625488e-01,-1.796311140060424805e+00,2.000000000000000000e+00
4.330250740051269531e+00,5.547645092010498047e-01,-1.901243567466735840e+00,2.000000000000000000e+00
4.292518615722656250e+00,4.610503613948822021e-01,-2.004082918167114258e+00,2.000000000000000000e+00
4.245553016662597656e+00,3.716763854026794434e-01,-2.102266550064086914e+00,2.000000000000000000e+00
4.190368175506591797e+00,2.872934341430664062e-01,-2.194328784942626953e+00,2.000000000000000000e+00
4.128009319305419922e+00,2.082522511482238770e-01,-2.279874086380004883e+00,2.000000000000000000e+00
4.059388160705566406e+00,1.346230953931808472e-01,-2.358922004699707031e+00,2.000000000000000000e+00
3.985255718231201172e+00,6.627514213323593140e-02,-2.431518077850341797e+00,2.000000000000000000e+00
3.906262397766113281e+00,2.987337298691272736e-03,-2.497877120971679688e+00,2.000000000000000000e+00
3.823000907897949219e+00,-5.547033995389938354e-02,-2.558446645736694336e+00,2.000000000000000000e+00
3.736019134521484375e+00,-1.093177944421768188e-01,-2.613772869110107422e+00,2.000000000000000000e+00
3.645821332931518555e+00,-1.587646007537841797e-01,-2.664416551589965820e+00,2.000000000000000000e+00
3.552870988845825195e+00,-2.040102481842041016e-01,-2.710919857025146484e+00,2.000000000000000000e+00
3.457591056823730469e+00,-2.452443838119506836e-01,-2.753786563873291016e+00,2.000000000000000000e+00
3.360366106033325195e+00,-2.826470136642456055e-01,-2.793474912643432617e+00,2.000000000000000000e+00
3.261544942855834961e+00,-3.163888454437255859e-01,-2.830393552780151367e+00,2.000000000000000000e+00
3.161440849304199219e+00,-3.466314077377319336e-01,-2.864904165267944336e+00,2.000000000000000000e+00
3.060333490371704102e+00,-3.735273480415344238e-01,-2.897323131561279297e+00,2.000000000000000000e+00
2.958471775054931641e+00,-3.972207605838775635e-01,-2.927926540374755859e+00,2.000000000000000000e+00
2.856073856353759766e+00,-4.178472459316253662e-01,-2.956953525543212891e+00,2.000000000000000000e+00
2.753330230712890625e+00,-4.355342984199523926e-01,-2.984611272811889648e+00,2.000000000000000000e+00
2.650403976440429688e+00,-4.504014849662780762e-01,-3.011076688766479492e+00,2.000000000000000000e+00
2.547433614730834961e+00,-4.625607132911682129e-01,-3.036501884460449219e+00,2.000000000000000000e+00
2.444534301757812500e+00,-4.721165001392364502e-01,-3.061015605926513672e+00,2.000000000000000000e+00
2.341799497604370117e+00,-4.791660904884338379e-01,-3.084726572036743164e+00,2.000000000000000000e+00
2.239301919937133789e+00,-4.837998449802398682e-01,-3.107725381851196289e+00,2.000000000000000000e+00
2.137097120285034180e+00,-4.861014485359191895e-01,-3.130086660385131836e+00,2.000000000000000000e+00
2.035222768783569336e+00,-4.861480593681335449e-01,3.131313800811767578e+00,2.000000000000000000e+00
1.933701992034912109e+00,-4.840106964111328125e-01,3.110056877136230469e+00,2.000000000000000000e+00
1.832544207572937012e+00,-4.797542989253997803e-01,3.089289665222167969e+00,2.000000000000000000e+00
1.731747150421142578e+00,-4.734382033348083496e-01,3.068982601165771484e+00,2.000000000000000000e+00
1.631298422813415527e+00,-4.651161134243011475e-01,3.049113512039184570e+00,2.000000000000000000e+00
1.531177282333374023e+00,-4.548366069793701172e-01,3.029663324356079102e+00,2.000000000000000000e+00
1.431359052658081055e+00,-4.426431059837341309e-01,3.010607957839965820e+00,2.000000000000000000e+00
1.331823348999023438e+00,-4.285739064216613770e-01,2.991909265518188477e+00,2.000000000000000000e+00
1.232562661170959473e+00,-4.126623272895812988e-01,2.973506689071655273e+00,2.000000000000000000e+00
1.133591413497924805e+00,-3.949365317821502686e-01,2.955316543579101562e+00,2.000000000000000000e+00
1.034949421882629395e+00,-3.754199445247650146e-01,2.937264442443847656e+00,2.000000000000000000e+00
9.366819858551025391e-01,-3.541329503059387207e-01,2.919336557388305664e+00,2.000000000000000000e+00
8.388124704360961914e-01,-3.310950398445129395e-01,2.901545763015747070e+00,2.000000000000000000e+00
7.413651943206787109e-01,-3.063259720802307129e-01,2.883874654769897461e+00,2.000000000000000000e+00
6.443707942962646484e-01,-2.798441946506500244e-01,2.866304636001586914e+00,2.000000000000000000e+00
5.478538870811462402e-01,-2.516668438911437988e-01,2.848822355270385742e+00,2.000000000000000000e+00
4.518441557884216309e-01,-2.218104451894760132e-01,2.829336166381835938e+00,2.000000000000000000e+00
3.702386915683746338e-01,-2.070804387331008911e-01,3.107345819473266602e+00,2.000000000000000000e+00
2.708001732826232910e-01,-2.036127597093582153e-01,3.106168985366821289e+00,2.000000000000000000e+00
1.713653206825256348e-01,-2.000418752431869507e-01,3.105269908905029297e+00,2.000000000000000000e+00
7.193320244550704956e-02,-1.963953971862792969e-01,3.104648590087890625e+00,2.000000000000000000e+00
-2.749714814126491547e-02,-1.927009671926498413e-01,3.104305267333984375e+00,2.000000000000000000e+00
-1.269267350435256958e-01,-1.889862269163131714e-01,3.104239702224731445e+00,2.000000000000000000e+00
-2.263566106557846069e-01,-1.852787733078002930e-01,3.104452371597290039e+00,2.000000000000000000e+00
-3.257877528667449951e-01,-1.816062778234481812e-01,3.104942560195922852e+00,2.000000000000000000e+00
-4.252209067344665527e-01,-1.779877394437789917e-01,3.105451583862304688e+00,2.000000000000000000e+00
-5.246541500091552734e-01,-1.743723750114440918e-01,3.104649305343627930e+00,2.000000000000000000e+00
-6.240795850753784180e-01,-1.705494970083236694e-01,3.101184129714965820e+00,2.000000000000000000e+00
-7.234848141670227051e-01,-1.662358641624450684e-01,3.094776153564453125e+00,2.000000000000000000e+00
-8.228527903556823730e-01,-1.611390709877014160e-01,3.085423946380615234e+00,2.000000000000000000e+00
-9.221595525741577148e-01,-1.549669951200485229e-01,3.073126554489135742e+00,2.000000000000000000e+00
-1.021371483802795410e+00,-1.474280059337615967e-01,3.057881593704223633e+00,2.000000000000000000e+00
-1.120443105697631836e+00,-1.382313519716262817e-01,3.039685249328613281e+00,2.000000000000000000e+00
-1.219314217567443848e+00,-1.270874887704849243e-01,3.018531560897827148e+00,2.000000000000000000e+00
-1.317907214164733887e+00,-1.137086898088455200e-01,2.994410991668701172e+00,2.000000000000000000e+00
-1.416124582290649414e+00,-9.780971705913543701e-02,2.967309474945068359e+00,2.000000000000000000e+00
-1.513846516609191895e+00,-7.910876721143722534e-02,2.937207698822021484e+00,2.000000000000000000e+00
-1.610927820205688477e+00,-5.732857435941696167e-02,2.904078483581542969e+00,2.000000000000000000e+00
-1.707195162773132324e+00,-3.219777345657348633e-02,2.867886066436767578e+00,2.000000000000000000e+00
-1.802444815635681152e+00,-3.452595556154847145e-03,2.828583717346191406e+00,2.000000000000000000e+00
-1.896438956260681152e+00,2.916109561920166016e-02,2.786111354827880859e+00,1.979170680046081543e+00
-1.988903284072875977e+00,6.588534265756607056e-02,2.740393400192260742e+00,1.957600116729736328e+00
-2.079523324966430664e+00,1.069471165537834167e-01,2.691334962844848633e+00,1.938598155975341797e+00
-2.167941331863403320e+00,1.525546759366989136e-01,2.638818979263305664e+00,1.922426104545593262e+00
-2.253752231597900391e+00,2.028932124376296997e-01,2.582702159881591797e+00,1.909422755241394043e+00
-2.336499691009521484e+00,2.581194937229156494e-01,2.522806644439697266e+00,1.900028109550476074e+00
-2.415672540664672852e+00,3.183552622795104980e-01,2.458922147750854492e+00,1.894784212112426758e+00
-2.490709066390991211e+00,3.836683630943298340e-01,2.391213893890380859e+00,1.893377900123596191e+00
-2.561078071594238281e+00,4.539841115474700928e-01,2.322034835815429688e+00,1.892040491104125977e+00
-2.626455545425415039e+00,5.289645195007324219e-01,2.254015922546386719e+00,1.890028119087219238e+00
-2.686650037765502930e+00,6.081669330596923828e-01,2.187568902969360352e+00,1.885917901992797852e+00
-2.741508960723876953e+00,6.911554336547851562e-01,2.122410535812377930e+00,1.879863977432250977e+00
-2.790893793106079102e+00,7.775140404701232910e-01,2.058268547058105469e+00,1.872026324272155762e+00
-2.834677457809448242e+00,8.668433427810668945e-01,1.994883775711059570e+00,1.862560510635375977e+00
-2.872740030288696289e+00,9.587565064430236816e-01,1.932004094123840332e+00,1.851621031761169434e+00
-2.904966115951538086e+00,1.052875161170959473e+00,1.869382143020629883e+00,1.839364171028137207e+00
-2.931241273880004883e+00,1.148825287818908691e+00,1.806771278381347656e+00,1.825949668884277344e+00
-2.951452016830444336e+00,1.246233344078063965e+00,1.743923544883728027e+00,1.811543107032775879e+00
-2.965482711791992188e+00,1.344721436500549316e+00,1.680585980415344238e+00,1.796318769454956055e+00
-2.973216533660888672e+00,1.443902373313903809e+00,1.616498470306396484e+00,1.780462384223937988e+00
-2.974534273147583008e+00,1.543375015258789062e+00,1.551390528678894043e+00,1.764174461364746094e+00
-2.969314813613891602e+00,1.642718791961669922e+00,1.484978318214416504e+00,1.747922420501708984e+00
-2.957437515258789062e+00,1.741487145423889160e+00,1.416961073875427246e+00,1.732053756713867188e+00
-2.938783645629882812e+00,1.839201211929321289e+00,1.347017288208007812e+00,1.716922640800476074e+00
-2.913240432739257812e+00,1.935343384742736816e+00,1.274801254272460938e+00,1.702943444252014160e+00
-2.880705833435058594e+00,2.029348373413085938e+00,1.199936509132385254e+00,1.690613627433776855e+00
-2.841096162796020508e+00,2.120595932006835938e+00,1.122017264366149902e+00,1.680515408515930176e+00
-2.794353961944580078e+00,2.208401441574096680e+00,1.040580272674560547e+00,1.673411726951599121e+00
-2.740462541580200195e+00,2.292006254196166992e+00,9.551848769187927246e-01,1.670025348663330078e+00
-2.679484844207763672e+00,2.370588779449462891e+00,8.660013675689697266e-01,1.670025348663330078e+00
-2.611719846725463867e+00,2.443400382995605469e+00,7.772997021675109863e-01,1.670025348663330078e+00
-2.537934541702270508e+00,2.510108947753906250e+00,6.938647627830505371e-01,1.674356818199157715e+00
-2.459022045135498047e+00,2.570672273635864258e+00,6.162366867065429688e-01,1.684267640113830566e+00
-2.375793218612670898e+00,2.625158071517944336e+00,5.438885688781738281e-01,1.698585748672485352e+00
-2.288961887359619141e+00,2.673702955245971680e+00,4.764650166034698486e-01,1.716577529907226562e+00
-2.199153900146484375e+00,2.716497182846069336e+00,4.136286377906799316e-01,1.737691640853881836e+00
-2.106914520263671875e+00,2.753767728805541992e+00,3.550677001476287842e-01,1.761420488357543945e+00
-2.012714624404907227e+00,2.785768032073974609e+00,3.005399107933044434e-01,1.787410974502563477e+00
-1.916961431503295898e+00,2.812772512435913086e+00,2.498511672019958496e-01,1.815407752990722656e+00
-1.820002555847167969e+00,2.835071086883544922e+00,2.028495222330093384e-01,1.845236301422119141e+00
-1.722133636474609375e+00,2.852965116500854492e+00,1.594177633523941040e-01,1.876786947250366211e+00
-1.623602867126464844e+00,2.866765499114990234e+00,1.194681525230407715e-01,1.910001993179321289e+00
-1.524615406990051270e+00,2.876789331436157227e+00,8.293846994638442993e-02,1.944868087768554688e+00
-1.425337910652160645e+00,2.883359432220458984e+00,4.978810623288154602e-02,1.981409430503845215e+00
-1.325901985168457031e+00,2.886802434921264648e+00,1.999466679990291595e-02,2.000000000000000000e+00
-1.226407766342163086e+00,2.887448549270629883e+00,-6.449051201343536377e-03,2.000000000000000000e+00
-1.126927495002746582e+00,2.885630369186401367e+00,-2.953802421689033508e-02,2.000000000000000000e+00
-1.027508378028869629e+00,2.881683588027954102e+00,-4.925780743360519409e-02,2.000000000000000000e+00
-9.281760454177856445e-01,2.875945091247558594e+00,-6.558723002672195435e-02,2.000000000000000000e+00
-8.289378881454467773e-01,2.868754625320434570e+00,-7.850106805562973022e-02,2.000000000000000000e+00
-7.297862768173217773e-01,2.860453605651855469e+00,-8.797253668308258057e-02,2.000000000000000000e+00
-6.307017207145690918e-01,2.851385593414306641e+00,-9.397577494382858276e-02,2.000000000000000000e+00
-5.316566228866577148e-01,2.841895580291748047e+00,-9.648779034614562988e-02,2.000000000000000000e+00
-4.326187968254089355e-01,2.832330465316772461e+00,-9.549098461866378784e-02,2.000000000000000000e+00
-3.335551023483276367e-01,2.823038339614868164e+00,-9.097339957952499390e-02,2.000000000000000000e+00
-2.344352453947067261e-01,2.814368486404418945e+00,-8.293133229017257690e-02,2.000000000000000000e+00
-1.352356225252151489e-01,2.806669473648071289e+00,-7.140507549047470093e-02,2.000000000000000000e+00
-3.594313561916351318e-02,2.800282955169677734e+00,-5.650838837027549744e-02,2.000000000000000000e+00
6.343878060579299927e-02,2.795480728149414062e+00,-4.010539129376411438e-02,2.000000000000000000e+00
1.628851890563964844e-01,2.792269468307495117e+00,-2.476391196250915527e-02,2.000000000000000000e+00
2.623678147792816162e-01,2.790493488311767578e+00,-1.123703643679618835e-02,2.000000000000000000e+00
3.618651032447814941e-01,2.789974212646484375e+00,5.062941345386207104e-04,2.000000000000000000e+00
4.613623321056365967e-01,2.790535211563110352e+00,1.047400012612342834e-02,2.000000000000000000e+00
5.608505010604858398e-01,2.791999816894531250e+00,1.867049559950828552e-02,2.000000000000000000e+00
6.603254079818725586e-01,2.794191837310791016e+00,2.509791404008865356e-02,2.000000000000000000e+00
7.597866654396057129e-01,2.796935081481933594e+00,2.975522913038730621e-02,2.000000000000000000e+00
8.592369556427001953e-01,2.800053358078002930e+00,3.263922035694122314e-02,2.000000000000000000e+00
9.586807489395141602e-01,2.803369998931884766e+00,3.374435007572174072e-02,2.000000000000000000e+00
1.058123826980590820e+00,2.806707859039306641e+00,3.306328877806663513e-02,2.000000000000000000e+00
1.157572031021118164e+00,2.809888839721679688e+00,3.058718144893646240e-02,2.000000000000000000e+00
1.257030367851257324e+00,2.812733888626098633e+00,2.630570717155933380e-02,2.000000000000000000e+00
1.356501936912536621e+00,2.815062761306762695e+00,2.020744234323501587e-02,2.000000000000000000e+00
1.455987215042114258e+00,2.816694021224975586e+00,1.228008978068828583e-02,2.000000000000000000e+00
1.555482864379882812e+00,2.817445278167724609e+00,2.510544843971729279e-03,2.000000000000000000e+00
1.654980659484863281e+00,2.817132234573364258e+00,-9.114919230341911316e-03,2.000000000000000000e+00
1.754466533660888672e+00,2.815569400787353516e+00,-2.261059172451496124e-02,2.000000000000000000e+00
1.853919148445129395e+00,2.812570810317993164e+00,-3.799131140112876892e-02,2.000000000000000000e+00
1.953309297561645508e+00,2.807948589324951172e+00,-5.527247861027717590e-02,2.000000000000000000e+00
2.052598237991333008e+00,2.801514387130737305e+00,-7.447017729282379150e-02,2.000000000000000000e+00
