# time,x,y,theta,velocity
1.762312773640088320e+09,2.062666893005371094e+01,5.069570541381835938e-01,7.839387655258178711e-01,3.940085649490356445e+00
1.762312773661059856e+09,2.068299865722656250e+01,5.621427893638610840e-01,7.786049842834472656e-01,3.945647954940795898e+00
1.762312773680061817e+09,2.073951530456542969e+01,6.172911524772644043e-01,7.722250223159790039e-01,3.950694084167480469e+00
1.762312773700657606e+09,2.079623222351074219e+01,6.723699569702148438e-01,7.650341391563415527e-01,3.955271482467651367e+00
1.762312773720067024e+09,2.085317039489746094e+01,7.273458838462829590e-01,7.572231888771057129e-01,3.959424018859863281e+00
1.762312773740633011e+09,2.091034889221191406e+01,7.821851372718811035e-01,7.489458322525024414e-01,3.963191032409667969e+00
1.762312773760182619e+09,2.096779060363769531e+01,8.368544578552246094e-01,7.403249740600585938e-01,3.966608285903930664e+00
1.762312773780860424e+09,2.102551269531250000e+01,8.913216590881347656e-01,7.314579486846923828e-01,3.969708442687988281e+00
1.762312773800316095e+09,2.108353614807128906e+01,9.455557465553283691e-01,7.224213480949401855e-01,3.972520589828491211e+00
1.762312773820717812e+09,2.114188194274902344e+01,9.995201230049133301e-01,7.131494283676147461e-01,3.975071907043457031e+00
1.762312773840262890e+09,2.120063400268554688e+01,1.053113937377929688e+00,7.025541067123413086e-01,3.977386236190795898e+00
1.762312773860674143e+09,2.125981330871582031e+01,1.106302618980407715e+00,6.908084154129028320e-01,3.979485511779785156e+00
1.762312773880192518e+09,2.131943702697753906e+01,1.159054279327392578e+00,6.781629920005798340e-01,3.981389999389648438e+00
1.762312773900367022e+09,2.137952041625976562e+01,1.211334943771362305e+00,6.648224592208862305e-01,3.983117818832397461e+00
1.762312773920206785e+09,2.144008445739746094e+01,1.263108730316162109e+00,6.509530544281005859e-01,3.984685182571411133e+00
1.762312773940297842e+09,2.150114822387695312e+01,1.314339399337768555e+00,6.366887688636779785e-01,3.986106872558593750e+00
1.762312773960272074e+09,2.156272697448730469e+01,1.364990949630737305e+00,6.221367716789245605e-01,3.987396717071533203e+00
1.762312773980318785e+09,2.162483978271484375e+01,1.415028214454650879e+00,6.073821187019348145e-01,3.988566875457763672e+00
1.762312774000259161e+09,2.168749618530273438e+01,1.464416861534118652e+00,5.924915671348571777e-01,3.989628314971923828e+00
1.762312774020674467e+09,2.175070953369140625e+01,1.513124227523803711e+00,5.775171518325805664e-01,3.990591287612915039e+00
1.762312774040479183e+09,2.181448936462402344e+01,1.561119198799133301e+00,5.624985098838806152e-01,3.991464614868164062e+00
1.762312774060669899e+09,2.187883949279785156e+01,1.608371973037719727e+00,5.474656820297241211e-01,3.992257118225097656e+00
1.762312774080183744e+09,2.194376182556152344e+01,1.654863119125366211e+00,5.325663685798645020e-01,3.992975950241088867e+00
1.762312774100642681e+09,2.200920104980468750e+01,1.700648069381713867e+00,5.189549326896667480e-01,3.993628025054931641e+00
1.762312774120111465e+09,2.207515335083007812e+01,1.745712757110595703e+00,5.065036416053771973e-01,3.994219541549682617e+00
1.762312774140478373e+09,2.214161491394042969e+01,1.790043115615844727e+00,4.949938356876373291e-01,3.994756221771240234e+00
1.762312774160083771e+09,2.220857810974121094e+01,1.833631753921508789e+00,4.842428267002105713e-01,3.995243072509765625e+00
1.762312774181056261e+09,2.227602958679199219e+01,1.876475930213928223e+00,4.740984439849853516e-01,3.995684623718261719e+00
1.762312774200319052e+09,2.234395790100097656e+01,1.918576836585998535e+00,4.644348323345184326e-01,3.996085405349731445e+00
1.762312774220638037e+09,2.241234779357910156e+01,1.959938287734985352e+00,4.551481604576110840e-01,3.996448755264282227e+00
1.762312774240215540e+09,2.248118591308593750e+01,2.000565767288208008e+00,4.461535215377807617e-01,3.996778488159179688e+00
1.762312774260787010e+09,2.255045318603515625e+01,2.040465831756591797e+00,4.373816847801208496e-01,3.997077465057373047e+00
1.762312774280184984e+09,2.262013816833496094e+01,2.079645872116088867e+00,4.287767112255096436e-01,3.997348785400390625e+00
1.762312774300419331e+09,2.269019699096679688e+01,2.118166208267211914e+00,4.210230410099029541e-01,3.997595071792602539e+00
1.762312774320202351e+09,2.276058578491210938e+01,2.156086921691894531e+00,4.146119058132171631e-01,3.997818231582641602e+00
1.762312774340355635e+09,2.283129310607910156e+01,2.193420410156250000e+00,4.092674851417541504e-01,3.998020887374877930e+00
1.762312774360223532e+09,2.290230178833007812e+01,2.230184793472290039e+00,4.047622680664062500e-01,3.998204469680786133e+00
1.762312774380479813e+09,2.297359657287597656e+01,2.266402482986450195e+00,4.009095430374145508e-01,3.998371362686157227e+00
1.762312774400314569e+09,2.304515647888183594e+01,2.302097558975219727e+00,3.975570201873779297e-01,3.998522520065307617e+00
1.762312774420639277e+09,2.311696434020996094e+01,2.337295532226562500e+00,3.945812284946441650e-01,3.998659610748291016e+00
1.762312774440310717e+09,2.318900680541992188e+01,2.372022151947021484e+00,3.918828070163726807e-01,3.998784065246582031e+00
1.762312774460591316e+09,2.326126480102539062e+01,2.406302690505981445e+00,3.893825113773345947e-01,3.998897075653076172e+00
1.762312774480237246e+09,2.333372306823730469e+01,2.440160751342773438e+00,3.870175480842590332e-01,3.998999357223510742e+00
1.762312774500847578e+09,2.340636825561523438e+01,2.473619461059570312e+00,3.847389221191406250e-01,3.999092340469360352e+00
1.762312774520041943e+09,2.347918510437011719e+01,2.506709337234497070e+00,3.826344311237335205e-01,3.999176502227783203e+00
1.762312774540562153e+09,2.355212020874023438e+01,2.539541006088256836e+00,3.818155825138092041e-01,3.999253034591674805e+00
1.762312774560074806e+09,2.362516021728515625e+01,2.572142362594604492e+00,3.821220993995666504e-01,3.999322414398193359e+00
1.762312774580968618e+09,2.369829368591308594e+01,2.604538202285766602e+00,3.833125829696655273e-01,3.999385356903076172e+00
1.762312774600305557e+09,2.377150726318359375e+01,2.636756896972656250e+00,3.851890861988067627e-01,3.999442338943481445e+00
1.762312774620620489e+09,2.384478378295898438e+01,2.668828487396240234e+00,3.875902593135833740e-01,3.999494075775146484e+00
1.762312774640185118e+09,2.391811561584472656e+01,2.700783967971801758e+00,3.903854191303253174e-01,3.999541044235229492e+00
1.762312774660695553e+09,2.399148368835449219e+01,2.732654094696044922e+00,3.934694826602935791e-01,3.999583721160888672e+00
1.762312774680136681e+09,2.406487655639648438e+01,2.764468431472778320e+00,3.967587649822235107e-01,3.999622344970703125e+00
1.762312774700506926e+09,2.413828277587890625e+01,2.796255350112915039e+00,4.001870155334472656e-01,3.999657392501831055e+00
1.762312774720194817e+09,2.421168899536132812e+01,2.828041553497314453e+00,4.037026166915893555e-01,3.999689102172851562e+00
1.762312774740294695e+09,2.428508758544921875e+01,2.859851360321044922e+00,4.072656929492950439e-01,3.999717950820922852e+00
1.762312774760534286e+09,2.435846519470214844e+01,2.891707181930541992e+00,4.108459651470184326e-01,3.999744176864624023e+00
1.762312774780517817e+09,2.443181419372558594e+01,2.923629999160766602e+00,4.144209921360015869e-01,3.999768018722534180e+00
1.762312774800384045e+09,2.450512695312500000e+01,2.955637931823730469e+00,4.179745316505432129e-01,3.999789476394653320e+00
1.762312774820698023e+09,2.457839584350585938e+01,2.987747669219970703e+00,4.214952588081359863e-01,3.999809026718139648e+00
1.762312774840419531e+09,2.465161514282226562e+01,3.019973754882812500e+00,4.249757230281829834e-01,3.999826669692993164e+00
1.762312774860577106e+09,2.472477531433105469e+01,3.052329063415527344e+00,4.284114837646484375e-01,3.999842882156372070e+00
1.762312774880291939e+09,2.479787445068359375e+01,3.084825277328491211e+00,4.318004846572875977e-01,3.999857425689697266e+00
1.762312774900724649e+09,2.487090682983398438e+01,3.117472410202026367e+00,4.351422786712646484e-01,3.999870777130126953e+00
1.762312774920241117e+09,2.494384384155273438e+01,3.150333642959594727e+00,4.391674995422363281e-01,3.999882698059082031e+00
1.762312774940463305e+09,2.501665687561035156e+01,3.183470487594604492e+00,4.444053173065185547e-01,3.999893665313720703e+00
1.762312774960143566e+09,2.508933830261230469e+01,3.216893196105957031e+00,4.506104290485382080e-01,3.999903440475463867e+00
1.762312774980761290e+09,2.516188049316406250e+01,3.250617504119873047e+00,4.575800597667694092e-01,3.999912500381469727e+00
1.762312775000310421e+09,2.523427200317382812e+01,3.284663200378417969e+00,4.651472866535186768e-01,3.999920606613159180e+00
1.762312775020554304e+09,2.530650138854980469e+01,3.319051265716552734e+00,4.731756448745727539e-01,3.999927997589111328e+00
1.762312775040306091e+09,2.537855720520019531e+01,3.353804111480712891e+00,4.815541803836822510e-01,3.999934673309326172e+00
1.762312775060574770e+09,2.545042610168457031e+01,3.388943433761596680e+00,4.901932179927825928e-01,3.999940633773803711e+00
1.762312775080460787e+09,2.552209281921386719e+01,3.424490451812744141e+00,4.990209937095642090e-01,3.999946117401123047e+00
1.762312775100736141e+09,2.559355926513671875e+01,3.460438966751098633e+00,5.076155662536621094e-01,3.999951124191284180e+00
1.762312775120271683e+09,2.566484069824218750e+01,3.496754884719848633e+00,5.153035521507263184e-01,3.999955654144287109e+00
1.762312775140556574e+09,2.573593902587890625e+01,3.533427238464355469e+00,5.219102501869201660e-01,3.999959945678710938e+00
1.762312775160601854e+09,2.580684852600097656e+01,3.570465326309204102e+00,5.276355743408203125e-01,3.999963521957397461e+00
1.762312775180624008e+09,2.587756347656250000e+01,3.607871055603027344e+00,5.326471924781799316e-01,3.999966859817504883e+00
1.762312775200325727e+09,2.594808578491210938e+01,3.645641803741455078e+00,5.370850563049316406e-01,3.999969959259033203e+00
1.762312775220782280e+09,2.601841354370117188e+01,3.683771133422851562e+00,5.410654544830322266e-01,3.999972820281982422e+00
1.762312775240280390e+09,2.608855056762695312e+01,3.722250223159790039e+00,5.446845293045043945e-01,3.999975204467773438e+00
1.762312775260450840e+09,2.615850067138671875e+01,3.761068820953369141e+00,5.480213761329650879e-01,3.999977588653564453e+00
1.762312775280284166e+09,2.622826766967773438e+01,3.800215959548950195e+00,5.511406660079956055e-01,3.999979734420776367e+00
1.762312775300761461e+09,2.629785537719726562e+01,3.839680194854736328e+00,5.540949106216430664e-01,3.999981641769409180e+00
1.762312775320178270e+09,2.636723899841308594e+01,3.879502058029174805e+00,5.576562881469726562e-01,3.999983310699462891e+00
1.762312775340916872e+09,2.643639373779296875e+01,3.919721364974975586e+00,5.623860955238342285e-01,3.999984741210937500e+00
1.762312775360267401e+09,2.650531959533691406e+01,3.960331201553344727e+00,5.680636763572692871e-01,3.999986171722412109e+00
1.762312775380717039e+09,2.657401466369628906e+01,4.001330852508544922e+00,5.745045542716979980e-01,3.999987602233886719e+00
1.762312775400164127e+09,2.664247322082519531e+01,4.042725086212158203e+00,5.815553069114685059e-01,3.999988794326782227e+00
1.762312775420690536e+09,2.671068572998046875e+01,4.084520816802978516e+00,5.890889763832092285e-01,3.999989748001098633e+00
1.762312775440212011e+09,2.677867698669433594e+01,4.126677036285400391e+00,5.962711572647094727e-01,3.999990701675415039e+00
1.762312775460649014e+09,2.684646797180175781e+01,4.169154644012451172e+00,6.024888753890991211e-01,3.999991655349731445e+00
1.762312775480144739e+09,2.691405105590820312e+01,4.211961269378662109e+00,6.079200506210327148e-01,3.999992370605468750e+00
1.762312775500687361e+09,2.698142433166503906e+01,4.255099296569824219e+00,6.127139925956726074e-01,3.999993085861206055e+00
1.762312775520291805e+09,2.704858589172363281e+01,4.298565864562988281e+00,6.169953346252441406e-01,3.999993801116943359e+00
1.762312775540668011e+09,2.711553573608398438e+01,4.342356681823730469e+00,6.208677291870117188e-01,3.999994277954101562e+00
1.762312775560609102e+09,2.718227767944335938e+01,4.386463165283203125e+00,6.244167685508728027e-01,3.999994754791259766e+00
1.762312775581434965e+09,2.724881744384765625e+01,4.430877685546875000e+00,6.277130842208862305e-01,3.999995231628417969e+00
1.762312775600249767e+09,2.731515502929687500e+01,4.475590229034423828e+00,6.308143138885498047e-01,3.999995708465576172e+00
1.762312775620593071e+09,2.738129806518554688e+01,4.520590782165527344e+00,6.337673068046569824e-01,3.999996185302734375e+00
1.762312775640328884e+09,2.744725036621093750e+01,4.565870285034179688e+00,6.366100907325744629e-01,3.999996423721313477e+00
1.762312775660354376e+09,2.751301765441894531e+01,4.611419200897216797e+00,6.393728852272033691e-01,3.999996900558471680e+00
1.762312775680228233e+09,2.757860374450683594e+01,4.657227993011474609e+00,6.420798301696777344e-01,3.999997138977050781e+00
1.762312775700951576e+09,2.764401245117187500e+01,4.703288555145263672e+00,6.447499990463256836e-01,3.999997377395629883e+00
1.762312775720335484e+09,2.770925140380859375e+01,4.749593257904052734e+00,6.473980545997619629e-01,3.999997615814208984e+00
1.762312775740986824e+09,2.777432441711425781e+01,4.796125411987304688e+00,6.499094963073730469e-01,3.999997854232788086e+00
1.762312775760402203e+09,2.783929824829101562e+01,4.842798709869384766e+00,6.511523723602294922e-01,3.999998092651367188e+00
1.762312775780745983e+09,2.790418243408203125e+01,4.889597892761230469e+00,6.512715816497802734e-01,3.999998331069946289e+00
1.762312775800230026e+09,2.796898269653320312e+01,4.936510562896728516e+00,6.504975557327270508e-01,3.999998331069946289e+00
1.762312775820857286e+09,2.803371429443359375e+01,4.983520984649658203e+00,6.490202546119689941e-01,3.999998569488525391e+00
1.762312775840247154e+09,2.809838676452636719e+01,5.030610561370849609e+00,6.469957828521728516e-01,3.999998569488525391e+00
1.762312775860945702e+09,2.816301727294921875e+01,5.077757835388183594e+00,6.445515155792236328e-01,3.999998807907104492e+00
1.762312775880123377e+09,2.822762107849121094e+01,5.124942779541015625e+00,6.417906880378723145e-01,3.999998807907104492e+00
1.762312775900578260e+09,2.829221153259277344e+01,5.172144412994384766e+00,6.387965083122253418e-01,3.999999046325683594e+00
1.762312775920229197e+09,2.835680580139160156e+01,5.219342708587646484e+00,6.356354951858520508e-01,3.999999046325683594e+00
1.762312775940637350e+09,2.842141532897949219e+01,5.266519069671630859e+00,6.323601007461547852e-01,3.999999284744262695e+00
1.762312775960773706e+09,2.848605346679687500e+01,5.313654422760009766e+00,6.290115714073181152e-01,3.999999284744262695e+00
1.762312775980722904e+09,2.855073547363281250e+01,5.360733032226562500e+00,6.256217956542968750e-01,3.999999284744262695e+00
1.762312776000239611e+09,2.861546897888183594e+01,5.407738685607910156e+00,6.222149729728698730e-01,3.999999284744262695e+00
1.762312776020753384e+09,2.868026542663574219e+01,5.454658031463623047e+00,6.188091635704040527e-01,3.999999523162841797e+00
1.762312776040360212e+09,2.874513244628906250e+01,5.501477718353271484e+00,6.154176592826843262e-01,3.999999523162841797e+00
1.762312776060392618e+09,2.881008148193359375e+01,5.548186779022216797e+00,6.120496392250061035e-01,3.999999523162841797e+00
1.762312776080194235e+09,2.887511634826660156e+01,5.594774246215820312e+00,6.087113022804260254e-01,3.999999523162841797e+00
1.762312776100968122e+09,2.894024467468261719e+01,5.641231536865234375e+00,6.054064035415649414e-01,3.999999523162841797e+00
1.762312776120392084e+09,2.900547218322753906e+01,5.687549591064453125e+00,6.021368503570556641e-01,3.999999761581420898e+00
1.762312776141026020e+09,2.907080268859863281e+01,5.733722209930419922e+00,5.989031195640563965e-01,3.999999761581420898e+00
1.762312776160394669e+09,2.913624191284179688e+01,5.779742240905761719e+00,5.957047343254089355e-01,3.999999761581420898e+00
1.762312776180746794e+09,2.920178985595703125e+01,5.825604915618896484e+00,5.925405025482177734e-01,3.999999761581420898e+00
1.762312776200302362e+09,2.926745223999023438e+01,5.871304035186767578e+00,5.894085764884948730e-01,3.999999761581420898e+00
1.762312776220936537e+09,2.933323097229003906e+01,5.916836261749267578e+00,5.863069891929626465e-01,3.999999761581420898e+00
1.762312776240238667e+09,2.939912223815917969e+01,5.962206363677978516e+00,5.833591222763061523e-01,3.999999761581420898e+00
1.762312776260571480e+09,2.946507072448730469e+01,6.007492542266845703e+00,5.817033052444458008e-01,3.999999761581420898e+00
1.762312776280271769e+09,2.953107070922851562e+01,6.052700996398925781e+00,5.811983346939086914e-01,3.999999761581420898e+00
1.762312776300436974e+09,2.959712219238281250e+01,6.097837924957275391e+00,5.816161036491394043e-01,3.999999761581420898e+00
1.762312776320281982e+09,2.966322135925292969e+01,6.142903804779052734e+00,5.826416611671447754e-01,3.999999761581420898e+00
1.762312776340961456e+09,2.972941398620605469e+01,6.187830448150634766e+00,5.829781889915466309e-01,4.000000000000000000e+00
1.762312776360569715e+09,2.979569816589355469e+01,6.232625007629394531e+00,5.826363563537597656e-01,4.000000000000000000e+00
1.762312776380728483e+09,2.986206436157226562e+01,6.277296066284179688e+00,5.817372798919677734e-01,4.000000000000000000e+00
1.762312776400069237e+09,2.992850875854492188e+01,6.321850299835205078e+00,5.803831815719604492e-01,4.000000000000000000e+00
1.762312776420669079e+09,2.999503135681152344e+01,6.366288661956787109e+00,5.786597728729248047e-01,4.000000000000000000e+00
1.762312776440320253e+09,3.006163024902343750e+01,6.410611629486083984e+00,5.766388773918151855e-01,4.000000000000000000e+00
1.762312776460569859e+09,3.012830734252929688e+01,6.454816818237304688e+00,5.743800997734069824e-01,4.000000000000000000e+00
1.762312776480225325e+09,3.019506645202636719e+01,6.498900413513183594e+00,5.719329714775085449e-01,4.000000000000000000e+00
1.762312776501084328e+09,3.026190757751464844e+01,6.542858600616455078e+00,5.693380832672119141e-01,4.000000000000000000e+00
1.762312776520288467e+09,3.032883262634277344e+01,6.586686611175537109e+00,5.666288137435913086e-01,4.000000000000000000e+00
1.762312776541156054e+09,3.039584732055664062e+01,6.630379199981689453e+00,5.638324022293090820e-01,4.000000000000000000e+00
1.762312776560278416e+09,3.046295356750488281e+01,6.673930644989013672e+00,5.609707236289978027e-01,4.000000000000000000e+00
1.762312776580693722e+09,3.053015518188476562e+01,6.717336654663085938e+00,5.580614209175109863e-01,4.000000000000000000e+00
1.762312776600440025e+09,3.059745216369628906e+01,6.760592460632324219e+00,5.551186203956604004e-01,4.000000000000000000e+00
1.762312776621111155e+09,3.066484832763671875e+01,6.803692340850830078e+00,5.521532893180847168e-01,4.000000000000000000e+00
1.762312776640283585e+09,3.073234748840332031e+01,6.846632480621337891e+00,5.491741299629211426e-01,4.000000000000000000e+00
1.762312776660733938e+09,3.079995155334472656e+01,6.889408588409423828e+00,5.461877584457397461e-01,4.000000000000000000e+00
1.762312776680340767e+09,3.086766052246093750e+01,6.932017326354980469e+00,5.431991815567016602e-01,4.000000000000000000e+00
1.762312776700664520e+09,3.093547630310058594e+01,6.974454402923583984e+00,5.402121543884277344e-01,4.000000000000000000e+00
1.762312776720253706e+09,3.100340270996093750e+01,7.016716480255126953e+00,5.372292995452880859e-01,4.000000000000000000e+00
1.762312776740731001e+09,3.107143783569335938e+01,7.058801651000976562e+00,5.342524647712707520e-01,4.000000000000000000e+00
1.762312776760314465e+09,3.113958549499511719e+01,7.100706577301025391e+00,5.312828421592712402e-01,4.000000000000000000e+00
1.762312776781049490e+09,3.120784378051757812e+01,7.142428874969482422e+00,5.283212065696716309e-01,4.000000000000000000e+00
1.762312776800237179e+09,3.127621459960937500e+01,7.183966636657714844e+00,5.253677368164062500e-01,4.000000000000000000e+00
