# time,x,y,theta,velocity
1.762312774280184984e+09,2.248937988281250000e+01,2.037491083145141602e+00,4.485822916030883789e-01,3.997348785400390625e+00
1.762312774300419331e+09,2.256072998046875000e+01,2.077073097229003906e+00,4.385837316513061523e-01,3.997595071792602539e+00
1.762312774320202351e+09,2.262627029418945312e+01,2.112397670745849609e+00,4.325458705425262451e-01,3.997818231582641602e+00
1.762312774340355635e+09,2.268444633483886719e+01,2.143538236618041992e+00,4.292221665382385254e-01,3.998020887374877930e+00
1.762312774360223532e+09,2.275710487365722656e+01,2.191585063934326172e+00,4.151662290096282959e-01,3.998204469680786133e+00
1.762312774380479813e+09,2.282492256164550781e+01,2.231147289276123047e+00,4.061991274356842041e-01,3.998371362686157227e+00
1.762312774400314569e+09,2.288926124572753906e+01,2.264588832855224609e+00,4.015329480171203613e-01,3.998522520065307617e+00
1.762312774420639277e+09,2.294622230529785156e+01,2.291670322418212891e+00,3.985711634159088135e-01,3.998659610748291016e+00
1.762312774440310717e+09,2.304349327087402344e+01,2.321441650390625000e+00,3.963969349861145020e-01,3.998784065246582031e+00
1.762312774460591316e+09,2.314988327026367188e+01,2.347333908081054688e+00,3.973352909088134766e-01,3.998897075653076172e+00
1.762312774480237246e+09,2.324215507507324219e+01,2.372625112533569336e+00,3.984625637531280518e-01,3.998999357223510742e+00
1.762312774500847578e+09,2.332348632812500000e+01,2.413090944290161133e+00,3.978499770164489746e-01,3.999092340469360352e+00
1.762312774520041943e+09,2.340369224548339844e+01,2.446733236312866211e+00,3.981887400150299072e-01,3.999176502227783203e+00
1.762312774540562153e+09,2.347821998596191406e+01,2.474632978439331055e+00,3.996573388576507568e-01,3.999253034591674805e+00
1.762312774560074806e+09,2.356137275695800781e+01,2.518095016479492188e+00,3.988192379474639893e-01,3.999322414398193359e+00
1.762312774580968618e+09,2.363493347167968750e+01,2.552057981491088867e+00,3.992429077625274658e-01,3.999385356903076172e+00
1.762312774600305557e+09,2.370313453674316406e+01,2.581192493438720703e+00,4.004500806331634521e-01,3.999442338943481445e+00
1.762312774620620489e+09,2.376582717895507812e+01,2.608959197998046875e+00,4.022245705127716064e-01,3.999494075775146484e+00
1.762312774640185118e+09,2.384427452087402344e+01,2.649080753326416016e+00,4.031986892223358154e-01,3.999541044235229492e+00
1.762312774660695553e+09,2.391276550292968750e+01,2.681388139724731445e+00,4.046338200569152832e-01,3.999583721160888672e+00
1.762312774680136681e+09,2.398357772827148438e+01,2.708809852600097656e+00,4.067442715167999268e-01,3.999622344970703125e+00
1.762312774700506926e+09,2.407795524597167969e+01,2.745091438293457031e+00,4.073637723922729492e-01,3.999657392501831055e+00
1.762312774720194817e+09,2.415545463562011719e+01,2.778000593185424805e+00,4.087552130222320557e-01,3.999689102172851562e+00
1.762312774740294695e+09,2.422249412536621094e+01,2.808559894561767578e+00,4.101294875144958496e-01,3.999717950820922852e+00
1.762312774760534286e+09,2.427777481079101562e+01,2.851549386978149414e+00,4.097027480602264404e-01,3.999744176864624023e+00
1.762312774780517817e+09,2.432769584655761719e+01,2.887073040008544922e+00,4.097329974174499512e-01,3.999768018722534180e+00
1.762312774800384045e+09,2.437195968627929688e+01,2.916522502899169922e+00,4.097693860530853271e-01,3.999789476394653320e+00
1.762312774820698023e+09,2.440838241577148438e+01,2.942039251327514648e+00,4.098541736602783203e-01,3.999809026718139648e+00
1.762312774840419531e+09,2.449177932739257812e+01,2.977125406265258789e+00,4.094820916652679443e-01,3.999826669692993164e+00
1.762312774860577106e+09,2.457036018371582031e+01,3.011971950531005859e+00,4.110232591629028320e-01,3.999842882156372070e+00
1.762312774880291939e+09,2.463727378845214844e+01,3.043077707290649414e+00,4.128785729408264160e-01,3.999857425689697266e+00
1.762312774900724649e+09,2.470919990539550781e+01,3.077839612960815430e+00,4.141659140586853027e-01,3.999870777130126953e+00
1.762312774920241117e+09,2.477844619750976562e+01,3.109562635421752930e+00,4.183889925479888916e-01,3.999882698059082031e+00
1.762312774940463305e+09,2.483893585205078125e+01,3.137346267700195312e+00,4.228734672069549561e-01,3.999893665313720703e+00
1.762312774960143566e+09,2.495677375793457031e+01,3.156960964202880859e+00,4.398121833801269531e-01,3.999903440475463867e+00
1.762312774980761290e+09,2.507619285583496094e+01,3.177429199218750000e+00,4.571306705474853516e-01,3.999912500381469727e+00
1.762312775000310421e+09,2.515682029724121094e+01,3.205727815628051758e+00,4.646739363670349121e-01,3.999920606613159180e+00
1.762312775020554304e+09,2.521907997131347656e+01,3.236474990844726562e+00,4.690879881381988525e-01,3.999927997589111328e+00
1.762312775040306091e+09,2.530126380920410156e+01,3.279791593551635742e+00,4.782328009605407715e-01,3.999934673309326172e+00
1.762312775060574770e+09,2.537092590332031250e+01,3.326474905014038086e+00,4.823899865150451660e-01,3.999940633773803711e+00
1.762312775080460787e+09,2.543218612670898438e+01,3.367387771606445312e+00,4.847819507122039795e-01,3.999946117401123047e+00
1.762312775100736141e+09,2.553403282165527344e+01,3.381770372390747070e+00,5.015813708305358887e-01,3.999951124191284180e+00
1.762312775120271683e+09,2.561968612670898438e+01,3.400716781616210938e+00,5.156995058059692383e-01,3.999955654144287109e+00
1.762312775140556574e+09,2.569022369384765625e+01,3.428287029266357422e+00,5.229725837707519531e-01,3.999959945678710938e+00
1.762312775160601854e+09,2.575246238708496094e+01,3.475980281829833984e+00,5.316565632820129395e-01,3.999963521957397461e+00
1.762312775180624008e+09,2.581112098693847656e+01,3.524627923965454102e+00,5.357528924942016602e-01,3.999966859817504883e+00
1.762312775200325727e+09,2.586680030822753906e+01,3.568959951400756836e+00,5.375697016716003418e-01,3.999969959259033203e+00
1.762312775220782280e+09,2.591939353942871094e+01,3.611124038696289062e+00,5.381939411163330078e-01,3.999972820281982422e+00
1.762312775240280390e+09,2.599811172485351562e+01,3.655998229980468750e+00,5.399886369705200195e-01,3.999975204467773438e+00
1.762312775260450840e+09,2.606387329101562500e+01,3.701634883880615234e+00,5.407912135124206543e-01,3.999977588653564453e+00
1.762312775280284166e+09,2.611931991577148438e+01,3.747359991073608398e+00,5.409926772117614746e-01,3.999979734420776367e+00
1.762312775300761461e+09,2.620209693908691406e+01,3.778736829757690430e+00,5.468744039535522461e-01,3.999981641769409180e+00
1.762312775320178270e+09,2.627367401123046875e+01,3.804226398468017578e+00,5.540704131126403809e-01,3.999983310699462891e+00
1.762312775340916872e+09,2.633324813842773438e+01,3.821705579757690430e+00,5.629580616950988770e-01,3.999984741210937500e+00
1.762312775360267401e+09,2.640513038635253906e+01,3.857124805450439453e+00,5.690190792083740234e-01,3.999986171722412109e+00
1.762312775380717039e+09,2.646667480468750000e+01,3.896587133407592773e+00,5.726395249366760254e-01,3.999987602233886719e+00
1.762312775400164127e+09,2.652427101135253906e+01,3.936836004257202148e+00,5.754547715187072754e-01,3.999988794326782227e+00
1.762312775420690536e+09,2.657463264465332031e+01,3.974543571472167969e+00,5.776149034500122070e-01,3.999989748001098633e+00
1.762312775440212011e+09,2.664945983886718750e+01,4.034593582153320312e+00,5.883032083511352539e-01,3.999990701675415039e+00
1.762312775460649014e+09,2.671833419799804688e+01,4.089210987091064453e+00,5.940113067626953125e-01,3.999991655349731445e+00
1.762312775480144739e+09,2.678535652160644531e+01,4.141709804534912109e+00,5.963964462280273438e-01,3.999992370605468750e+00
1.762312775500687361e+09,2.687698364257812500e+01,4.163980007171630859e+00,6.088515520095825195e-01,3.999993085861206055e+00
1.762312775520291805e+09,2.695248222351074219e+01,4.186923027038574219e+00,6.163890361785888672e-01,3.999993801116943359e+00
1.762312775540668011e+09,2.701055145263671875e+01,4.211736202239990234e+00,6.213004589080810547e-01,3.999994277954101562e+00
1.762312775560609102e+09,2.707325363159179688e+01,4.276904582977294922e+00,6.254397630691528320e-01,3.999994754791259766e+00
1.762312775581434965e+09,2.713347434997558594e+01,4.341498374938964844e+00,6.258897185325622559e-01,3.999995231628417969e+00
1.762312775600249767e+09,2.718506431579589844e+01,4.395685672760009766e+00,6.255876421928405762e-01,3.999995708465576172e+00
1.762312775620593071e+09,2.723562812805175781e+01,4.447483539581298828e+00,6.246505975723266602e-01,3.999996185302734375e+00
1.762312775640328884e+09,2.730532073974609375e+01,4.489782333374023438e+00,6.289673447608947754e-01,3.999996423721313477e+00
1.762312775660354376e+09,2.737050819396972656e+01,4.530846595764160156e+00,6.319076418876647949e-01,3.999996900558471680e+00
1.762312775680228233e+09,2.743129158020019531e+01,4.569761753082275391e+00,6.347539424896240234e-01,3.999997138977050781e+00
1.762312775700951576e+09,2.750023078918457031e+01,4.607649326324462891e+00,6.380703449249267578e-01,3.999997377395629883e+00
1.762312775720335484e+09,2.756034660339355469e+01,4.648549079895019531e+00,6.392680406570434570e-01,3.999997615814208984e+00
1.762312775740986824e+09,2.761549758911132812e+01,4.690703868865966797e+00,6.393819451332092285e-01,3.999997854232788086e+00
1.762312775760402203e+09,2.769157409667968750e+01,4.738049030303955078e+00,6.418142318725585938e-01,3.999998092651367188e+00
1.762312775780745983e+09,2.776353073120117188e+01,4.788257598876953125e+00,6.423957347869873047e-01,3.999998331069946289e+00
1.762312775800230026e+09,2.782748985290527344e+01,4.836549282073974609e+00,6.417810916900634766e-01,3.999998331069946289e+00
1.762312775820857286e+09,2.789041709899902344e+01,4.887540340423583984e+00,6.406058073043823242e-01,3.999998569488525391e+00
1.762312775840247154e+09,2.796414566040039062e+01,4.940977096557617188e+00,6.415584683418273926e-01,3.999998569488525391e+00
1.762312775860945702e+09,2.803229331970214844e+01,4.997426986694335938e+00,6.408862471580505371e-01,3.999998807907104492e+00
1.762312775880123377e+09,2.809764289855957031e+01,5.056476116180419922e+00,6.393206715583801270e-01,3.999998807907104492e+00
1.762312775900578260e+09,2.816876602172851562e+01,5.106915950775146484e+00,6.387308239936828613e-01,3.999999046325683594e+00
1.762312775920229197e+09,2.822936630249023438e+01,5.155837535858154297e+00,6.375713348388671875e-01,3.999999046325683594e+00
1.762312775940637350e+09,2.828755378723144531e+01,5.207029342651367188e+00,6.360741257667541504e-01,3.999999284744262695e+00
1.762312775960773706e+09,2.836224365234375000e+01,5.271813869476318359e+00,6.296454668045043945e-01,3.999999284744262695e+00
1.762312775980722904e+09,2.842544555664062500e+01,5.330170154571533203e+00,6.240192651748657227e-01,3.999999284744262695e+00
1.762312776000239611e+09,2.847946929931640625e+01,5.379331588745117188e+00,6.201280951499938965e-01,3.999999284744262695e+00
1.762312776020753384e+09,2.852750587463378906e+01,5.422065258026123047e+00,6.176851391792297363e-01,3.999999523162841797e+00
1.762312776040360212e+09,2.860694694519042969e+01,5.462033271789550781e+00,6.160222291946411133e-01,3.999999523162841797e+00
1.762312776060392618e+09,2.867474174499511719e+01,5.503293037414550781e+00,6.149434447288513184e-01,3.999999523162841797e+00
1.762312776080194235e+09,2.873850059509277344e+01,5.544028759002685547e+00,6.140614151954650879e-01,3.999999523162841797e+00
1.762312776100968122e+09,2.882979774475097656e+01,5.578562259674072266e+00,6.133985519409179688e-01,3.999999523162841797e+00
1.762312776120392084e+09,2.891769218444824219e+01,5.621076583862304688e+00,6.137727499008178711e-01,3.999999761581420898e+00
1.762312776141026020e+09,2.899499702453613281e+01,5.664141178131103516e+00,6.140336394309997559e-01,3.999999761581420898e+00
1.762312776160394669e+09,2.908622932434082031e+01,5.715550422668457031e+00,6.113052964210510254e-01,3.999999761581420898e+00
1.762312776180746794e+09,2.918075180053710938e+01,5.765062332153320312e+00,6.107056140899658203e-01,3.999999761581420898e+00
1.762312776200302362e+09,2.927268409729003906e+01,5.814404010772705078e+00,6.111460924148559570e-01,3.999999761581420898e+00
1.762312776220936537e+09,2.935507583618164062e+01,5.863081932067871094e+00,6.114690899848937988e-01,3.999999761581420898e+00
1.762312776240238667e+09,2.942715263366699219e+01,5.917506694793701172e+00,6.053331494331359863e-01,3.999999761581420898e+00
1.762312776260571480e+09,2.950002288818359375e+01,5.969298362731933594e+00,6.029477119445800781e-01,3.999999761581420898e+00
1.762312776280271769e+09,2.957826614379882812e+01,6.019304752349853516e+00,6.025755405426025391e-01,3.999999761581420898e+00
1.762312776300436974e+09,2.959583282470703125e+01,6.067862987518310547e+00,5.937106609344482422e-01,3.999999761581420898e+00
1.762312776320281982e+09,2.961060714721679688e+01,6.105704784393310547e+00,5.887307524681091309e-01,3.999999761581420898e+00
1.762312776340961456e+09,2.962446022033691406e+01,6.138379573822021484e+00,5.837714672088623047e-01,4.000000000000000000e+00
1.762312776360569715e+09,2.962684440612792969e+01,6.179478168487548828e+00,5.760208964347839355e-01,4.000000000000000000e+00
1.762312776380728483e+09,2.965045547485351562e+01,6.226323604583740234e+00,5.684638619422912598e-01,4.000000000000000000e+00
1.762312776400069237e+09,2.968779945373535156e+01,6.270112514495849609e+00,5.633605718612670898e-01,4.000000000000000000e+00
1.762312776420669079e+09,2.973254203796386719e+01,6.309494018554687500e+00,5.601512789726257324e-01,4.000000000000000000e+00
1.762312776440320253e+09,2.979226303100585938e+01,6.343943119049072266e+00,5.596055984497070312e-01,4.000000000000000000e+00
1.762312776460569859e+09,2.984959793090820312e+01,6.378927230834960938e+00,5.595736503601074219e-01,4.000000000000000000e+00
1.762312776480225325e+09,2.990304565429687500e+01,6.413438796997070312e+00,5.588475465774536133e-01,4.000000000000000000e+00
1.762312776501084328e+09,2.998075485229492188e+01,6.455348968505859375e+00,5.534108281135559082e-01,4.000000000000000000e+00
1.762312776520288467e+09,3.005419921875000000e+01,6.497736930847167969e+00,5.506480336189270020e-01,4.000000000000000000e+00
1.762312776541156054e+09,3.012509536743164062e+01,6.540749549865722656e+00,5.498158931732177734e-01,4.000000000000000000e+00
1.762312776560278416e+09,3.020478248596191406e+01,6.584958553314208984e+00,5.451828241348266602e-01,4.000000000000000000e+00
1.762312776580693722e+09,3.027449798583984375e+01,6.624790668487548828e+00,5.435942411422729492e-01,4.000000000000000000e+00
1.762312776600440025e+09,3.034316253662109375e+01,6.665629386901855469e+00,5.439141392707824707e-01,4.000000000000000000e+00
1.762312776621111155e+09,3.042111968994140625e+01,6.711279869079589844e+00,5.451734662055969238e-01,4.000000000000000000e+00
1.762312776640283585e+09,3.056085586547851562e+01,6.759021759033203125e+00,5.492853522300720215e-01,4.000000000000000000e+00
1.762312776660733938e+09,3.073092079162597656e+01,6.828957080841064453e+00,5.573980212211608887e-01,4.000000000000000000e+00
1.762312776680340767e+09,3.085040664672851562e+01,6.895656108856201172e+00,5.603937506675720215e-01,4.000000000000000000e+00
1.762312776700664520e+09,3.095814514160156250e+01,6.952993869781494141e+00,5.585622787475585938e-01,4.000000000000000000e+00
1.762312776720253706e+09,3.105759429931640625e+01,7.004398345947265625e+00,5.590634346008300781e-01,4.000000000000000000e+00
1.762312776740731001e+09,3.115097045898437500e+01,7.055228710174560547e+00,5.595938563346862793e-01,4.000000000000000000e+00
1.762312776760314465e+09,3.123801231384277344e+01,7.103736877441406250e+00,5.549748539924621582e-01,4.000000000000000000e+00
1.762312776781049490e+09,3.133309745788574219e+01,7.151351451873779297e+00,5.550559163093566895e-01,4.000000000000000000e+00
1.762312776800237179e+09,3.143650627136230469e+01,7.200778961181640625e+00,5.576534867286682129e-01,4.000000000000000000e+00
1.762312776820641994e+09,3.153979301452636719e+01,7.254393100738525391e+00,5.601959228515625000e-01,4.000000000000000000e+00
1.762312776840279579e+09,3.156418228149414062e+01,7.300362586975097656e+00,5.473555326461791992e-01,4.000000000000000000e+00
1.762312776860486507e+09,3.149454116821289062e+01,7.313260555267333984e+00,5.311893224716186523e-01,4.000000000000000000e+00
1.762312776880251646e+09,3.138747406005859375e+01,7.296531677246093750e+00,5.152564048767089844e-01,4.000000000000000000e+00
1.762312776900691271e+09,3.146926307678222656e+01,7.339671134948730469e+00,5.088288784027099609e-01,4.000000000000000000e+00
1.762312776920350075e+09,3.155197143554687500e+01,7.385574817657470703e+00,5.072416067123413086e-01,4.000000000000000000e+00
1.762312776940543890e+09,3.161878776550292969e+01,7.425394535064697266e+00,5.067203640937805176e-01,4.000000000000000000e+00
1.762312776960293770e+09,3.174582672119140625e+01,7.488265037536621094e+00,4.993490576744079590e-01,4.000000000000000000e+00
1.762312776980771065e+09,3.186162185668945312e+01,7.551410675048828125e+00,4.968083798885345459e-01,4.000000000000000000e+00
1.762312777000363350e+09,3.195793533325195312e+01,7.606869697570800781e+00,4.962634742259979248e-01,4.000000000000000000e+00
1.762312777020966768e+09,3.203576660156250000e+01,7.651785373687744141e+00,4.967255592346191406e-01,4.000000000000000000e+00
1.762312777040321827e+09,3.212247848510742188e+01,7.692116737365722656e+00,4.946350455284118652e-01,4.000000000000000000e+00
1.762312777060826302e+09,3.220194625854492188e+01,7.731846332550048828e+00,4.946821928024291992e-01,4.000000000000000000e+00
1.762312777080254555e+09,3.227456283569335938e+01,7.770417690277099609e+00,4.955710172653198242e-01,4.000000000000000000e+00
1.762312777100645781e+09,3.235517120361328125e+01,7.814366340637207031e+00,4.952159225940704346e-01,4.000000000000000000e+00
1.762312777120901108e+09,3.243805694580078125e+01,7.857486248016357422e+00,4.971787035465240479e-01,4.000000000000000000e+00
1.762312777140702248e+09,3.253404235839843750e+01,7.905983924865722656e+00,5.016700029373168945e-01,4.000000000000000000e+00
1.762312777160296917e+09,3.262563323974609375e+01,7.961249828338623047e+00,5.064440369606018066e-01,4.000000000000000000e+00
1.762312777180706739e+09,3.271637344360351562e+01,8.015163421630859375e+00,5.110700726509094238e-01,4.000000000000000000e+00
1.762312777200504065e+09,3.279279708862304688e+01,8.063420295715332031e+00,5.146843791007995605e-01,4.000000000000000000e+00
1.762312777220687151e+09,3.285192871093750000e+01,8.104872703552246094e+00,5.158486962318420410e-01,4.000000000000000000e+00
1.762312777240352631e+09,3.290495681762695312e+01,8.150283813476562500e+00,5.163543820381164551e-01,4.000000000000000000e+00
1.762312777260582447e+09,3.294860076904296875e+01,8.187955856323242188e+00,5.160357952117919922e-01,4.000000000000000000e+00
1.762312777280201912e+09,3.298975753784179688e+01,8.222801208496093750e+00,5.146458148956298828e-01,4.000000000000000000e+00
1.762312777300753117e+09,3.303854751586914062e+01,8.257975578308105469e+00,5.125911831855773926e-01,4.000000000000000000e+00
1.762312777320471048e+09,3.308171463012695312e+01,8.290343284606933594e+00,5.112305879592895508e-01,4.000000000000000000e+00
1.762312777340766430e+09,3.312031173706054688e+01,8.320618629455566406e+00,5.099060535430908203e-01,4.000000000000000000e+00
1.762312777360225677e+09,3.319427871704101562e+01,8.346330642700195312e+00,5.085834264755249023e-01,4.000000000000000000e+00
1.762312777380626202e+09,3.325998306274414062e+01,8.374155044555664062e+00,5.092828869819641113e-01,4.000000000000000000e+00
1.762312777400087595e+09,3.331840133666992188e+01,8.403428077697753906e+00,5.106564164161682129e-01,4.000000000000000000e+00
1.762312777420451403e+09,3.337339782714843750e+01,8.434370994567871094e+00,5.120245814323425293e-01,4.000000000000000000e+00
1.762312777440155029e+09,3.345532989501953125e+01,8.468470573425292969e+00,5.123857259750366211e-01,4.000000000000000000e+00
