# time,x,y,theta,velocity
1.761367613604231834e+09,-1.769494403780677683e+00,2.827331830169629523e+00,1.832663254205563752e-01,1.751734382936088963e+00
1.761367613621747494e+09,-1.734909947509531536e+00,2.833334498555073466e+00,1.720846004829766906e-01,1.759064102257320572e+00
1.761367613640196085e+09,-1.700116853674983997e+00,2.839066892073394133e+00,1.622154212581760346e-01,1.767064242840150845e+00
1.761367613659649372e+09,-1.665117092526764875e+00,2.844520774524764928e+00,1.531398121495486098e-01,1.775821891600545266e+00
1.761367613680519819e+09,-1.629884196488952330e+00,2.849697793461131834e+00,1.445467853817283266e-01,1.785195386149606378e+00
1.761367613699808836e+09,-1.594431119745599812e+00,2.854596224490785872e+00,1.362280749903958810e-01,1.793698654861660913e+00
1.761367613719929934e+09,-1.558746078561685788e+00,2.859218568613747014e+00,1.280665494826608020e-01,1.804496140196975906e+00
1.761367613740025759e+09,-1.522812562470202025e+00,2.863509916324466609e+00,1.193195266793422166e-01,1.814291197818239221e+00
1.761367613762906313e+09,-1.486647714585708657e+00,2.867419581650081373e+00,1.096242413754068418e-01,1.823176892109489744e+00
1.761367613779956579e+09,-1.450273842790438916e+00,2.870951389162053946e+00,9.930433679506504852e-02,1.831237647450649098e+00
1.761367613801388741e+09,-1.413702691898681696e+00,2.874104942667647045e+00,8.857217476088316555e-02,1.840207933144560437e+00
1.761367613820328474e+09,-1.376904887715026282e+00,2.876880280031605785e+00,7.757827172811852801e-02,1.849924476978046961e+00
1.761367613840951443e+09,-1.339894561504938908e+00,2.879271812824012233e+00,6.639607269095443298e-02,1.858738946622868093e+00
1.761367613859886646e+09,-1.302687171936087518e+00,2.881330786471120842e+00,5.574565499864985590e-02,1.868472630589432804e+00
1.761367613880710125e+09,-1.265253554624499621e+00,2.883101719413315944e+00,4.598878782645578894e-02,1.878957569874344813e+00
1.761367613900066853e+09,-1.227606921849944133e+00,2.884571827033103553e+00,3.678202621707998832e-02,1.888469097907197192e+00
1.761367613921090841e+09,-1.189763700106866384e+00,2.885733129289367760e+00,2.790703409274883015e-02,1.897981566792328767e+00
1.761367613939671040e+09,-1.151716628629415595e+00,2.886523422258928218e+00,1.856194923790705290e-02,1.907452855857849627e+00
1.761367613961028814e+09,-1.113482568975456166e+00,2.886889568412043250e+00,8.330906384760151592e-03,1.916044839941494882e+00
1.761367613980495453e+09,-1.075083027579404993e+00,2.886834199362803055e+00,-2.494638196840948900e-03,1.923839152836278599e+00
1.761367614000962973e+09,-1.036537065994073803e+00,2.886413630084823101e+00,-1.304799418439575066e-02,1.930909849535709100e+00
1.761367614019743681e+09,-9.978611312762826202e-01,2.885673421669197047e+00,-2.287527230633237471e-02,1.937324109841938036e+00
1.761367614041393280e+09,-9.590706336669412302e-01,2.884602761466964260e+00,-3.224465029680103484e-02,1.943142876651632767e+00
1.761367614059424877e+09,-9.201799149998666216e-01,2.883195383179198323e+00,-4.132965712080440002e-02,1.948421434984028977e+00
1.761367614080723047e+09,-8.812022902276058778e-01,2.881447730803255336e+00,-5.024212382619744344e-02,1.953209937252600170e+00
1.761367614099530220e+09,-8.421495590312757518e-01,2.879367752405133540e+00,-5.893250496811954647e-02,1.957553879771031013e+00
1.761367614122449398e+09,-8.030273755268991787e-01,2.877047996210378766e+00,-6.644670226062235341e-02,1.961494535020852803e+00
1.761367614139988422e+09,-7.638448640413789681e-01,2.874488705502106889e+00,-7.311487842202016307e-02,1.965069343787788192e+00
1.761367614160814524e+09,-7.246106460973416041e-01,2.871686766414711656e+00,-7.924090870236290274e-02,1.968312270892546900e+00
1.761367614180111885e+09,-6.853324556212900820e-01,2.868642927122685204e+00,-8.502287534046207296e-02,1.971254127895934349e+00
1.761367614200768471e+09,-6.460123782234414858e-01,2.865418282538567230e+00,-8.990575330347397309e-02,1.973922865844339070e+00
1.761367614220053196e+09,-6.066519136422137137e-01,2.862066157145660039e+00,-9.363616939757272994e-02,1.976343840837023746e+00
1.761367614242868662e+09,-5.672563601362683450e-01,2.858584617891296809e+00,-9.662177478986969104e-02,1.978540054938414894e+00
1.761367614260897875e+09,-5.278301435152545906e-01,2.854976693874102356e+00,-9.912953943501826015e-02,1.980532374724337519e+00
1.761367614280985832e+09,-4.883770370865166410e-01,2.851247822720070602e+00,-1.013336639796727084e-01,1.982339729538635797e+00
1.761367614300163031e+09,-4.489003184459641194e-01,2.847404335641566142e+00,-1.033472868948248774e-01,1.983979291343847651e+00
1.761367614321016788e+09,-4.094028813902090280e-01,2.843452596054541814e+00,-1.052434507677653536e-01,1.985466637874724549e+00
1.761367614340237856e+09,-3.698873155605843510e-01,2.839398542998661235e+00,-1.070689502845579011e-01,1.986815900644739674e+00
1.761367614361304283e+09,-3.303559630709246298e-01,2.835247479913756141e+00,-1.088534644607259821e-01,1.988039899211822448e+00
1.761367614379812241e+09,-2.908098878918818908e-01,2.831013963949691625e+00,-1.104934333065694940e-01,1.989150262978995887e+00
1.761367614400252342e+09,-2.512408915345482607e-01,2.826795755566031243e+00,-1.109907440461424116e-01,1.990157541687164411e+00
1.761367614420173407e+09,-2.116505191624372395e-01,2.822597002803819866e+00,-1.106536942620908459e-01,1.991071305649863676e+00
1.761367614439985991e+09,-1.720405604708314939e-01,2.818417842831256515e+00,-1.097750638783339394e-01,1.991900236682314196e+00
1.761367614459481239e+09,-1.324122843683615824e-01,2.814261789645273737e+00,-1.085473912104275712e-01,1.992652210588715445e+00
1.761367614480429888e+09,-9.276062951322150418e-02,2.810192448101913154e+00,-1.064094513352567273e-01,1.993334371991500209e+00
1.761367614499989986e+09,-5.308156951888558933e-02,2.806265327265673903e+00,-1.031031740670196595e-01,1.993953202213517129e+00
1.761367614520632505e+09,-1.337591747212566948e-02,2.802490341775262905e+00,-9.891515451085222677e-02,1.994514580858099295e+00
1.761367614539523602e+09,2.636352167398261018e-02,2.798966346012784268e+00,-9.310339192789143792e-02,1.995023841672100673e+00
1.761367614559870958e+09,6.613481113143561407e-02,2.795701285165349770e+00,-8.614588098992759235e-02,1.995485823222664212e+00
1.761367614579777002e+09,1.059357312491654574e-01,2.792700387796338113e+00,-7.844713810610340343e-02,1.995904914869209845e+00
1.761367614600362062e+09,1.457643049542031166e-01,2.789972631801779457e+00,-7.027283375721829484e-02,1.996285098467429631e+00
1.761367614619945288e+09,1.856185368591561080e-01,2.787528392632226737e+00,-6.179665941571446663e-02,1.996629986201524654e+00
1.761367614641325474e+09,2.254962858117822710e-01,2.785378093726113224e+00,-5.313153279907759097e-02,1.996942854904136144e+00
1.761367614659331322e+09,2.653952153069368824e-01,2.783531482361631060e+00,-4.435034376124959848e-02,1.997226677190048205e+00
1.761367614681699276e+09,3.053124264346522287e-01,2.781987262617938050e+00,-3.562210329511764778e-02,1.997484149699467970e+00
1.761367614700208664e+09,3.452423155555802148e-01,2.780658528362971005e+00,-2.798843101220185869e-02,1.997717718719229429e+00
1.761367614721083403e+09,3.851833961991793509e-01,2.779550845839536155e+00,-2.116626197304529583e-02,1.997929603425349310e+00
1.761367614739922762e+09,4.251342085459508535e-01,2.778672197729460613e+00,-1.487727634337712192e-02,1.998121816967767250e+00
1.761367614761128902e+09,4.650931161019060123e-01,2.778025751007993982e+00,-8.936929492344947504e-03,1.998296185597601360e+00
1.761367614779320240e+09,5.050584334282643972e-01,2.777611896020220073e+00,-3.223184658329959155e-03,1.998454366018646233e+00
1.761367614800052881e+09,5.450284932351562306e-01,2.777429520594229650e+00,2.344394625681367472e-03,1.998597861127977104e+00
1.761367614820126772e+09,5.850016772714312641e-01,2.777476790003633234e+00,7.818611680982117534e-03,1.998728034295211398e+00
1.761367614839993238e+09,6.249764268154359703e-01,2.777751610656809866e+00,1.323395674659348133e-02,1.998846122316098262e+00
1.761367614859641075e+09,6.649519869113429404e-01,2.778192986480774174e+00,1.792439158069787999e-02,1.998953247163509417e+00
1.761367614881129265e+09,7.049281606609661965e-01,2.778748762793640026e+00,2.156292483338036539e-02,1.999050426647479561e+00
1.761367614900107145e+09,7.449043673888151584e-01,2.779422815790917323e+00,2.451470834012679789e-02,1.999138584085580206e+00
1.761367614921134233e+09,7.848801092688804104e-01,2.780213971052201583e+00,2.702099247466972082e-02,1.999218557075505442e+00
1.761367614939732313e+09,8.248549733034595821e-01,2.781118449737469689e+00,2.924060524129656891e-02,1.999291105453219197e+00
1.761367614961198568e+09,8.648286213439665415e-01,2.782131347788440845e+00,3.127765843494068054e-02,1.999356918512275483e+00
1.761367614979482412e+09,9.048007754184724805e-01,2.783247499493801236e+00,3.320003109420598814e-02,1.999416621552906559e+00
1.761367615001337051e+09,9.447715109917106391e-01,2.784451923329391398e+00,3.492924047403084958e-02,1.999470781823097898e+00
1.761367615020030260e+09,9.847436042386689126e-01,2.785645588209108237e+00,3.548075304709219502e-02,1.999519913908100133e+00
1.761367615041643620e+09,1.024717096138215933e+00,2.786823688535863042e+00,3.517390244931384996e-02,1.999564484619585691e+00
1.761367615061617851e+09,1.064691917115177633e+00,2.787985415814794532e+00,3.430957217173350587e-02,1.999604917430899187e+00
1.761367615081234455e+09,1.104669714790008861e+00,2.789067683617994842e+00,3.239742735060766043e-02,1.999641596500544072e+00
1.761367615100181341e+09,1.144651648278346645e+00,2.790014576964270354e+00,2.922596296279286743e-02,1.999674870322134090e+00
1.761367615122984171e+09,1.184636612628029217e+00,2.790855024993981193e+00,2.558033533262588435e-02,1.999705055035484680e+00
1.761367615140005589e+09,1.224623791617203361e+00,2.791613548333871986e+00,2.198310853497604384e-02,1.999732437430307819e+00
1.761367615161352634e+09,1.264612328002576724e+00,2.792326710406205059e+00,1.895340467273926716e-02,1.999757277671046607e+00
1.761367615179982662e+09,1.304602257990936431e+00,2.792986174972481361e+00,1.634727903522347967e-02,1.999779811768737314e+00
1.761367615201676607e+09,1.344593592526428294e+00,2.793583527006038736e+00,1.402302460927054573e-02,1.999800253823388996e+00
1.761367615221147537e+09,1.384586263515032778e+00,2.794113667532302614e+00,1.188595433741002419e-02,1.999818798058180080e+00
1.761367615240936279e+09,1.424580156510674156e+00,2.794573610554901943e+00,9.872878557895575086e-03,1.999835620664803804e+00
1.761367615259895563e+09,1.464575131754400461e+00,2.794961698412203432e+00,7.941690558790149082e-03,1.999850881477493125e+00
1.761367615280891657e+09,1.504571037085860707e+00,2.795277093444796801e+00,6.064382651655346977e-03,1.999864725491631301e+00
1.761367615300066710e+09,1.544567715518761819e+00,2.795519451457858739e+00,4.222365427426234656e-03,1.999877284241375675e+00
1.761367615320992947e+09,1.584565009458149376e+00,2.795688714252225093e+00,2.403332769977973953e-03,1.999888677049383778e+00
1.761367615339941740e+09,1.624562762877258315e+00,2.795784979702581552e+00,5.991638500137167443e-04,1.999899012160517575e+00
1.761367615360764265e+09,1.664560822297447062e+00,2.795808421984150360e+00,-1.195479566182622863e-03,1.999908387770294782e+00
1.761367615379555225e+09,1.704559012407740326e+00,2.795749207130072911e+00,-3.106544565364433800e-03,1.999916892957859238e+00
1.761367615400305748e+09,1.744556701255901787e+00,2.795512950948777053e+00,-6.149200796338650035e-03,1.999924608532336778e+00
1.761367615420242310e+09,1.784553094573126275e+00,2.795098984050615520e+00,-1.002350687536803821e-02,1.999931607800614630e+00
1.761367615440438986e+09,1.824547427809114497e+00,2.794510054557366896e+00,-1.444069828884788666e-02,1.999937957263842270e+00
1.761367615460318327e+09,1.864538899439940778e+00,2.793744978425308556e+00,-1.920998546841115248e-02,1.999943717249269337e+00
1.761367615480929136e+09,1.904526646399223200e+00,2.792800564760878235e+00,-2.420576419493005935e-02,1.999948942483423808e+00
1.761367615503244877e+09,1.944509739948729665e+00,2.791672777890995327e+00,-2.934570838488095509e-02,1.999953682612077399e+00
1.761367615521378040e+09,1.984485135269514977e+00,2.790298525065974644e+00,-3.526477052845169297e-02,1.999957982671939138e+00
1.761367615539875269e+09,2.024449149159598615e+00,2.788623639441745183e+00,-4.226981416310796047e-02,1.999961883518553973e+00
1.761367615561131716e+09,2.064399605027952500e+00,2.786650160700969714e+00,-4.998251500183428092e-02,1.999965422214479593e+00
1.761367615579819202e+09,2.104334098755846316e+00,2.784375316592428984e+00,-5.815315614484475176e-02,1.999968632381422973e+00
1.761367615600734949e+09,2.144250010648156124e+00,2.781793987442030325e+00,-6.661753738552202153e-02,1.999971544519685507e+00
1.761367615620074511e+09,2.184144537299877342e+00,2.778900180071633308e+00,-7.526819562299925936e-02,1.999974186297951206e+00
1.761367615640918732e+09,2.224013886901226922e+00,2.775677872126214307e+00,-8.415766584114360571e-02,1.999976582816171078e+00
1.761367615659667492e+09,2.263846318392212620e+00,2.772027277377808296e+00,-9.425370278099112764e-02,1.999978756844041916e+00
1.761367615682436228e+09,2.303636638720373497e+00,2.767942769898911415e+00,-1.052260006524392832e-01,1.999980729037344807e+00
1.761367615700337172e+09,2.343379891971481221e+00,2.763422887159855623e+00,-1.167665848220862668e-01,1.999982518134198584e+00
1.761367615720219135e+09,2.383070664598686772e+00,2.758463010325179265e+00,-1.286727064166373335e-01,1.999984141133094084e+00
1.761367615740244865e+09,2.422703194755801537e+00,2.753057240938026062e+00,-1.408114784711733958e-01,1.999985613454399180e+00
1.761367615761172533e+09,2.462262641898389504e+00,2.747141232194280747e+00,-1.537849026553088916e-01,1.999986949086870247e+00
1.761367615780417681e+09,2.501733443136105794e+00,2.740659935414039072e+00,-1.678785139998366926e-01,1.999988160720561625e+00
1.761367615800944090e+09,2.541105631358480554e+00,2.733604508453960413e+00,-1.828227526787078727e-01,1.999989259867395841e+00
1.761367615819885015e+09,2.580351776061609481e+00,2.725878847554268347e+00,-1.993721332943441393e-01,1.999990256970539892e+00
1.761367615841014385e+09,2.619458875580537693e+00,2.717477551935302049e+00,-2.170556157616723436e-01,1.999991161503627657e+00
1.761367615859966278e+09,2.658414153088230147e+00,2.708398240503966825e+00,-2.354727013076199083e-01,1.999991982060770113e+00
1.761367615880917072e+09,2.697203716503870918e+00,2.698635175123746510e+00,-2.543601000857746985e-01,1.999992726438210022e+00
1.761367615900738001e+09,2.735812917457506543e+00,2.688181601016663702e+00,-2.735455443837191414e-01,1.999993401708394680e+00
1.761367615921458244e+09,2.774226630439206698e+00,2.677031079786147405e+00,-2.929169848653077057e-01,1.999994014287172606e+00
1.761367615940342903e+09,2.812429463381695083e+00,2.665178194972554593e+00,-3.124020798040600955e-01,1.999994569994751004e+00
1.761367615960957527e+09,2.850405912638700912e+00,2.652618875226425921e+00,-3.319545646058206789e-01,1.999995074110994642e+00
1.761367615980374336e+09,2.888140474339343733e+00,2.639350491732334270e+00,-3.515452149466693488e-01,1.999995531425591722e+00
1.761367616001116991e+09,2.925617722337786830e+00,2.625371828732851576e+00,-3.711558724766705897e-01,1.999995946283559922e+00
1.761367616019894838e+09,2.962822361128667037e+00,2.610682988472558197e+00,-3.907755088692009271e-01,1.999996322626530487e+00
1.761367616041991949e+09,2.999739260404049368e+00,2.595285267695669251e+00,-4.103976437607690375e-01,1.999996664030196936e+00
1.761367616059417725e+09,3.036353476462601453e+00,2.579181027403814497e+00,-4.300186597482540396e-01,1.999996973738289219e+00
1.761367616081897497e+09,3.072643375647857056e+00,2.562376794775861999e+00,-4.496444721959440560e-01,1.998475836042790554e+00
1.761367616099927902e+09,3.108559442932614214e+00,2.544893235946000587e+00,-4.693025869317557497e-01,1.996246282188175014e+00
1.761367616122663498e+09,3.144096350442890042e+00,2.526731437783943601e+00,-4.889623418154346868e-01,1.994784194190428517e+00
1.761367616140445709e+09,3.179201386370802851e+00,2.507851386168156615e+00,-5.093253492332661114e-01,1.988880709052760265e+00
1.761367616160714626e+09,3.213731113653636395e+00,2.488273312663112247e+00,-5.308284543998038618e-01,1.981005140766650019e+00
1.761367616180071115e+09,3.247684233274562793e+00,2.468007829147899734e+00,-5.530308150930844935e-01,1.971096578364503360e+00
1.761367616201118469e+09,3.280980469630998986e+00,2.447107755512375693e+00,-5.757255807472463349e-01,1.960757127071841799e+00
1.761367616221414804e+09,3.313687539584570629e+00,2.425603452306984043e+00,-5.979324647066618370e-01,1.953976762647367416e+00
1.761367616240913391e+09,3.345849474009523039e+00,2.403527504711954865e+00,-6.191758560817997026e-01,1.945000288830225799e+00
1.761367616259263992e+09,3.377393386080357551e+00,2.380936941305279664e+00,-6.397090702399784723e-01,1.935445279030980625e+00
1.761367616281078339e+09,3.408408190474424337e+00,2.357886573979384615e+00,-6.586298957358798223e-01,1.929179332542670489e+00
1.761367616299931526e+09,3.438906392367575116e+00,2.334359677189038695e+00,-6.765029232024464267e-01,1.920771721882387650e+00
1.761367616321536779e+09,3.468762456917883874e+00,2.310337881873334442e+00,-6.948073335062885381e-01,1.911777243969227547e+00
1.761367616339933634e+09,3.497994372367817739e+00,2.285820189252131041e+00,-7.134235024907129574e-01,1.901835020402140142e+00
1.761367616361016989e+09,3.526560621453316724e+00,2.260862594365971479e+00,-7.322584425204043956e-01,1.892040430202557300e+00
1.761367616380500078e+09,3.554503006361685369e+00,2.235446210153454238e+00,-7.511458872655210062e-01,1.885617372628052069e+00
1.761367616400736570e+09,3.581845039985618318e+00,2.209565090661135933e+00,-7.700171449887858177e-01,1.877646092042108306e+00
1.761367616420109034e+09,3.608539867474395368e+00,2.183277580260446715e+00,-7.889063562465684631e-01,1.869374522471109801e+00
1.761367616440944433e+09,3.634617833800867004e+00,2.156566995355501337e+00,-8.077355137611076374e-01,1.863950225333255606e+00
1.761367616460000038e+09,3.660107567663192008e+00,2.129416204943649138e+00,-8.264701656321717937e-01,1.860393101236410551e+00
1.761367616480762005e+09,3.685014420640095878e+00,2.101831280155281867e+00,-8.451260710408050603e-01,1.854623400437402259e+00
1.761367616501568556e+09,3.709289620772711071e+00,2.073877708706889589e+00,-8.637726279775803651e-01,1.848056466823810418e+00
1.761367616521260500e+09,3.732952818790446159e+00,2.045544172237999003e+00,-8.823599147499960882e-01,1.843750029103746302e+00
1.761367616539990902e+09,3.756014703241913999e+00,2.016829121189677387e+00,-9.008802624268590353e-01,1.837858208745712041e+00
1.761367616560467005e+09,3.778419017485123987e+00,1.987774287929355177e+00,-9.196687330048086695e-01,1.831510220711659587e+00
1.761367616580033779e+09,3.800186493221008543e+00,1.958385041536419680e+00,-9.384706394067862112e-01,1.824707973027900554e+00
1.761367616602936029e+09,3.821172699319836941e+00,1.928614808309573769e+00,-9.589809495107142201e-01,1.818109844581246914e+00
1.761367616624830484e+09,3.841355555554589518e+00,1.898424026017225597e+00,-9.811542511094615282e-01,1.813782950037089003e+00
1.761367616641102314e+09,3.860736934349281668e+00,1.867844642148895007e+00,-1.004356920103240514e+00,1.807071596006979863e+00
1.761367616660859823e+09,3.879314206604545845e+00,1.836898307863993551e+00,-1.028169700749222537e+00,1.802670450838076865e+00
1.761367616681567430e+09,3.897096364809539804e+00,1.805579913569226536e+00,-1.052311163380178494e+00,1.798268962793241554e+00
1.761367616699926376e+09,3.914068297076477521e+00,1.773921051836912843e+00,-1.076647893369726550e+00,1.794155464237040531e+00
1.761367616720966339e+09,3.930233522893983977e+00,1.741918237954969584e+00,-1.101056726482606773e+00,1.791457930443309365e+00
1.761367616741407871e+09,3.945592259581462535e+00,1.709573695473054045e+00,-1.125476711012153297e+00,1.788939362971083247e+00
