# time,x,y,theta
1.761182078856253147e+09,-9.931730912089622443e-01,-1.587273964565189821e-01,3.054892841648605639e+00,1.445445427557626727e+00
1.761182078877337456e+09,-1.021546287792821195e+00,-1.557097688338212049e-01,3.048460951992804091e+00,1.409758412992904164e+00
1.761182078896514654e+09,-1.049763730832842912e+00,-1.525076076609153675e-01,3.041953263523167195e+00,1.429859004048237736e+00
1.761182078916518688e+09,-1.078342784977478486e+00,-1.490666319072122548e-01,3.035477951495997750e+00,1.448466697958563643e+00
1.761182078936496735e+09,-1.107114433001031628e+00,-1.454076389258145974e-01,3.028945767766751285e+00,1.451836423756180938e+00
1.761182078956499815e+09,-1.135925487417889679e+00,-1.415494368636920075e-01,3.022340779541022204e+00,1.454955881938761575e+00
1.761182078976410389e+09,-1.164930694760470065e+00,-1.374701917199888934e-01,3.015720777728301272e+00,1.473885004030420109e+00
1.761182078996596098e+09,-1.194269132396083011e+00,-1.331486886840232142e-01,3.009086625904305645e+00,1.491408239793874380e+00
1.761182079016807556e+09,-1.223874809502792260e+00,-1.285915929756089593e-01,3.002395290544848550e+00,1.500374618027547458e+00
1.761182079037707806e+09,-1.253529919535374404e+00,-1.238292258084820324e-01,2.995610263889297631e+00,1.503105881890104634e+00
1.761182079056486607e+09,-1.283204568308014881e+00,-1.188634890133397903e-01,2.988762826797641825e+00,1.505609550570426558e+00
1.761182079076810598e+09,-1.312893499396152519e+00,-1.136928083044626003e-01,2.981876014741300374e+00,1.507952001317069968e+00
1.761182079096313715e+09,-1.342804489310280847e+00,-1.082778309094183655e-01,2.975009532954585367e+00,1.531487148136655208e+00
1.761182079116895199e+09,-1.373134577164745629e+00,-1.026365387620695319e-01,2.968791006055341075e+00,1.553274306712346897e+00
1.761182079135960102e+09,-1.403857748336699185e+00,-9.681624378788450391e-02,2.963420913897210518e+00,1.573443309281969515e+00
1.761182079156711817e+09,-1.434940638769708121e+00,-9.081021110797680984e-02,2.958520679736564851e+00,1.592114336186337908e+00
1.761182079176253796e+09,-1.466355590448622515e+00,-8.461492018936724036e-02,2.953874008023837927e+00,1.610311505205986649e+00
1.761182079196648598e+09,-1.498107458028655525e+00,-7.822294577470864652e-02,2.949360436529825602e+00,1.628356801413516353e+00
1.761182079216347218e+09,-1.530024456015397050e+00,-7.160499400835598771e-02,2.944217890321282560e+00,1.631206204327085185e+00
1.761182079236823797e+09,-1.562053294999525610e+00,-6.471027897167458409e-02,2.938046600256918328e+00,1.644891455739902586e+00
1.761182079256031275e+09,-1.594268096044801020e+00,-5.743574895867169933e-02,2.930278724915282851e+00,1.657560286671676542e+00
1.761182079276983738e+09,-1.626449933077216636e+00,-4.983146205069987483e-02,2.921365012012456575e+00,1.649671429125581179e+00
1.761182079375963688e+09,-1.786760536527111753e+00,-6.691821156541061071e-03,2.867952346326763546e+00,1.631795039223548960e+00
1.761182079396599531e+09,-1.817710476715530765e+00,2.996882687312152696e-03,2.853670730395655220e+00,1.612361750169943653e+00
1.761182079416407585e+09,-1.848180157046047434e+00,1.309260051012096915e-02,2.838380879969855108e+00,1.598279969676214662e+00
1.761182079437001228e+09,-1.878472637845871152e+00,2.368387031033111767e-02,2.822740912564874360e+00,1.610666889381833888e+00
1.761182079456383944e+09,-1.908617399277596105e+00,3.477328544101736252e-02,2.806872429156771265e+00,1.601811760313198274e+00
1.761182079477190256e+09,-1.938437414607556697e+00,4.629470840413934390e-02,2.790795337248136665e+00,1.595395167429005667e+00
1.761182079496073961e+09,-1.968131648016894220e+00,5.832431806130974200e-02,2.774749489190817542e+00,1.608320205241277057e+00
1.761182079516613245e+09,-1.997678261916688403e+00,7.085087397015746302e-02,2.758664798080002090e+00,1.601312721253880023e+00
1.761182079536359072e+09,-2.026909250645108962e+00,8.380420312612768541e-02,2.742480997270675402e+00,1.596234936260219284e+00
1.761182079556712866e+09,-2.055847707779363098e+00,9.719299594594026093e-02,2.726280192955997439e+00,1.592555471969321790e+00
1.761182079576388121e+09,-2.084362268674112340e+00,1.109526088862463622e-01,2.710007473560878122e+00,1.574507446377512387e+00
1.761182079596456051e+09,-2.111888409022691704e+00,1.247966692793476551e-01,2.693413582830680220e+00,1.510059063831763027e+00
1.761182079616134644e+09,-2.138199595953130583e+00,1.385938929374800066e-01,2.676769515551566059e+00,1.463358441448558533e+00
1.761182079637872696e+09,-2.163925517191076509e+00,1.526622338731371264e-01,2.660723624249962782e+00,1.468745409802473478e+00
1.761182079656046152e+09,-2.189496534269701478e+00,1.672209744757895133e-01,2.645270518661252179e+00,1.473732283409553423e+00
1.761182079676767349e+09,-2.214553482900799786e+00,1.820453743075148567e-01,2.629900583968300509e+00,1.439479294117145702e+00
1.761182079695999622e+09,-2.239146740667260715e+00,1.971537973338380045e-01,2.614742194299656930e+00,1.446797012145908390e+00
1.761182079716766596e+09,-2.263610149324619236e+00,2.127353954202196029e-01,2.599875094993004065e+00,1.453571233454156841e+00
1.761182079736416340e+09,-2.287632272549551260e+00,2.285767794297635103e-01,2.584953380479171781e+00,1.425453880618281488e+00
1.761182079758213758e+09,-2.311002704020759246e+00,2.445264862695897823e-01,2.569992436382328105e+00,1.405079464713531401e+00
1.761182079776798964e+09,-2.334040676638542422e+00,2.607906081416164756e-01,2.555286007244417679e+00,1.414881195005971204e+00
1.761182079796580553e+09,-2.356751223926130123e+00,2.773570820789669211e-01,2.540687500396918708e+00,1.397156147789885949e+00
1.761182079815941811e+09,-2.378925710829764117e+00,2.941364584531311333e-01,2.525443826964177685e+00,1.384312196795923988e+00
1.761182079836837292e+09,-2.400689755461321351e+00,3.112779495368674931e-01,2.509373810695853191e+00,1.386102622607177315e+00
1.761182079855971813e+09,-2.422100408885498712e+00,3.289130874514913927e-01,2.491950692337638884e+00,1.387760073162903174e+00
1.761182079877358198e+09,-2.443120026187670657e+00,3.470610399627392373e-01,2.473039329581093515e+00,1.389294425751098627e+00
1.761182079896004438e+09,-2.463794226976130375e+00,3.657968082906103979e-01,2.452855638846844766e+00,1.400707943625335128e+00
1.761182079917212248e+09,-2.484191494060236760e+00,3.851543008597693718e-01,2.431956359547281288e+00,1.411273769113305709e+00
1.761182079935977697e+09,-2.504109699882564488e+00,4.049270251148907596e-01,2.410410432381921098e+00,1.396173435571082866e+00
1.761182079956789970e+09,-2.523398639531290399e+00,4.249570987638037201e-01,2.388465767976831078e+00,1.385231425707434072e+00
1.761182079976886988e+09,-2.542264380370967025e+00,4.453678708598272085e-01,2.367183017757109820e+00,1.394114599281717215e+00
1.761182079997119427e+09,-2.560859790688980286e+00,4.662547008360546363e-01,2.346835240743987416e+00,1.402338014532754418e+00
1.761182080015999079e+09,-2.578951525282119572e+00,4.873659590025052335e-01,2.326770519322871600e+00,1.379198678469229167e+00
1.761182080037078619e+09,-2.596562254544307891e+00,5.087416237872699476e-01,2.307015689383855150e+00,1.390286699786491997e+00
1.761182080055828571e+09,-2.613744307359897601e+00,5.304245119704058542e-01,2.287550444242292702e+00,1.376980251128880006e+00
1.761182080076744318e+09,-2.630441701983293523e+00,5.521967440221169365e-01,2.269189113828631310e+00,1.367338142419168179e+00
1.761182080096176386e+09,-2.646800145509605073e+00,5.742610065401433372e-01,2.251677872246298229e+00,1.379239534968832226e+00
1.761182080116913319e+09,-2.662927633402948135e+00,5.967770260016935779e-01,2.234662414360975013e+00,1.390256994364082344e+00
1.761182080135986805e+09,-2.678663993837676838e+00,6.195270546104179044e-01,2.217733936089433477e+00,1.376707997311303000e+00
1.761182080156623840e+09,-2.693890406608770327e+00,6.423434393725633296e-01,2.200822390723613964e+00,1.366890089020463162e+00
1.761182080176186085e+09,-2.708748705270455748e+00,6.654400502849958654e-01,2.184099311331339610e+00,1.379304201054903700e+00
1.761182080197095156e+09,-2.723346390826725472e+00,6.889838824857851263e-01,2.167516830483384283e+00,1.390796297424968575e+00
1.761182080216305733e+09,-2.737546810682404352e+00,7.127555193036770875e-01,2.150830655761465149e+00,1.378876049354364142e+00
1.761182080236920357e+09,-2.751331344376180432e+00,7.367491974932554033e-01,2.134018273178405867e+00,1.388197650220739821e+00
1.761182080255900860e+09,-2.764716154590677988e+00,7.611728906506782799e-01,2.116237655370227344e+00,1.396826924057732011e+00
1.761182080277072191e+09,-2.777691138922125269e+00,7.860043301774104485e-01,2.097789430353802498e+00,1.404815285643864708e+00
1.761182080296377182e+09,-2.790248041599444395e+00,8.112181376608460504e-01,2.078916144784546560e+00,1.411896814595432925e+00
1.761182080316908360e+09,-2.802375669757387389e+00,8.367921514533711580e-01,2.059757935489441305e+00,1.418452391744343899e+00
1.761182080336015224e+09,-2.813910734625292953e+00,8.623768333716744783e-01,2.040199852069435327e+00,1.389587394852969782e+00
1.761182080356816053e+09,-2.824746343233259793e+00,8.877295234028905746e-01,2.020441488172052491e+00,1.368671234384252644e+00
1.761182080376204967e+09,-2.834931422343423435e+00,9.129416431249048891e-01,2.000782480644797356e+00,1.351443948070870649e+00
1.761182080396623850e+09,-2.844502416063204642e+00,9.380782257961354231e-01,1.981340374514656943e+00,1.338960721754498540e+00
1.761182080416427135e+09,-2.853312485696306577e+00,9.626919500874084878e-01,1.961862867099320340e+00,1.278548804610912804e+00
1.761182080436645269e+09,-2.861436394740790146e+00,9.869271453093337865e-01,1.942949639173215504e+00,1.277594184544868394e+00
1.761182080455975294e+09,-2.869154467412068144e+00,1.011277557726820486e+00,1.925623730421892388e+00,1.276902429998917121e+00
1.761182080476508617e+09,-2.876471639259414292e+00,1.035739076295763894e+00,1.909187986808197124e+00,1.276401152662714589e+00
1.761182080496083736e+09,-2.883444863122804236e+00,1.060508881909736578e+00,1.893290117462591127e+00,1.296646833214762040e+00
1.761182080516626596e+09,-2.890177631959924387e+00,1.085748831805053216e+00,1.878259327694874026e+00,1.315388836005216389e+00
1.761182080536040545e+09,-2.896665016479916144e+00,1.111280545811475173e+00,1.864010619389706358e+00,1.318885060902238893e+00
1.761182080556841850e+09,-2.902852649485481162e+00,1.136955772564884004e+00,1.850103847867486939e+00,1.322121620396089492e+00
1.761182080575929642e+09,-2.908723260523419007e+00,1.162748027275852580e+00,1.836358295339698854e+00,1.323076172493970804e+00
1.761182080596424341e+09,-2.914207349987715467e+00,1.188643817582548889e+00,1.822038693319748104e+00,1.323959823632789190e+00
1.761182080615924358e+09,-2.919256817527275949e+00,1.214645199991674307e+00,1.806911773548421252e+00,1.324777850248536115e+00
1.761182080636770248e+09,-2.923959397720961917e+00,1.241169417058150648e+00,1.791533502584481186e+00,1.368506075650397280e+00
1.761182080655889273e+09,-2.928358728619939733e+00,1.268456386858394014e+00,1.775919540831243815e+00,1.395132734096036664e+00
1.761182080676826715e+09,-2.932411565918023211e+00,1.296314980634060365e+00,1.759947949267056888e+00,1.419781797391997502e+00
1.761182080696224213e+09,-2.936102149492713309e+00,1.324730791664181284e+00,1.743659945818957890e+00,1.448703380604515090e+00
1.761182080716737270e+09,-2.939416074977514448e+00,1.353709704261120805e+00,1.727067973593982675e+00,1.467872040303501713e+00
1.761182080736207962e+09,-2.942318134098643068e+00,1.383103524659722749e+00,1.710145791979637453e+00,1.485617024285871723e+00
1.761182080757037163e+09,-2.944787951734566533e+00,1.412879549928504286e+00,1.692948313164706731e+00,1.502044065467658340e+00
1.761182080775976181e+09,-2.946807463675324090e+00,1.443029471684757148e+00,1.675527801376678783e+00,1.522167694587764686e+00
1.761182080796509266e+09,-2.948358871005579918e+00,1.473531714405154291e+00,1.657887128781060815e+00,1.531916288014717020e+00
1.761182080816066504e+09,-2.949417864731775030e+00,1.504242761440238496e+00,1.640004384591346343e+00,1.540940848084282111e+00
1.761182080836643457e+09,-2.949962047335263904e+00,1.534841728262107852e+00,1.621777656199227868e+00,1.520550350716669774e+00
1.761182080856449127e+09,-2.949978197709493433e+00,1.565150683829066303e+00,1.603362446657722540e+00,1.514999769839993737e+00
1.761182080878180027e+09,-2.949451157253696110e+00,1.595479162532060124e+00,1.584940524532117090e+00,1.518314415390110916e+00
1.761182080896498680e+09,-2.948294460823503549e+00,1.625475766852586545e+00,1.565276194042403590e+00,1.485362183664307167e+00
1.761182080916533947e+09,-2.946525227729566598e+00,1.654877958368950353e+00,1.544828931499437896e+00,1.461484296591800236e+00
1.761182080936102390e+09,-2.944154461964197722e+00,1.683828079385890852e+00,1.524196583453633735e+00,1.444181900533483054e+00
1.761182080957368612e+09,-2.941245350146009407e+00,1.711888178798638638e+00,1.503299112849758146e+00,1.380278660466214058e+00
1.761182080976157188e+09,-2.937757555998819381e+00,1.739524099987421524e+00,1.482947590949886818e+00,1.404988571627553640e+00
1.761182080996498585e+09,-2.933625607712068373e+00,1.767410223268328862e+00,1.463221811815881734e+00,1.414009832068945371e+00
1.761182081016017437e+09,-2.928817115278637750e+00,1.795363554192551669e+00,1.442887668783908506e+00,1.422361070880366896e+00
1.761182081036642551e+09,-2.923194076586365764e+00,1.823427060338995709e+00,1.420751891553989399e+00,1.439641546917059589e+00
1.761182081055918932e+09,-2.916735158665046068e+00,1.851507226043468401e+00,1.396702211869205623e+00,1.441785326019632718e+00
1.761182081077394962e+09,-2.909446825224971001e+00,1.879426345324186176e+00,1.370916582941605455e+00,1.443769876725742085e+00
1.761182081095987797e+09,-2.901346653072009563e+00,1.907190341164364478e+00,1.344170723061219652e+00,1.451342759338724031e+00
1.761182081116778851e+09,-2.892454801952175636e+00,1.934765562070037026e+00,1.316819103899473431e+00,1.446357557735330923e+00
1.761182081136212587e+09,-2.882822427510876917e+00,1.962000509499948864e+00,1.289039036403537564e+00,1.442745208825692904e+00
1.761182081156472683e+09,-2.872452303075055280e+00,1.988896978773783575e+00,1.261074051393684448e+00,1.440127605684007550e+00
1.761182081176045656e+09,-2.861431466450425454e+00,2.015248051442691590e+00,1.232864593892631921e+00,1.417451056161347589e+00
1.761182081196953297e+09,-2.849823246391233411e+00,2.040920670016600269e+00,1.204599859965855391e+00,1.401019153392014438e+00
1.761182081215964794e+09,-2.837898861456026989e+00,2.065538511487133633e+00,1.176851691402020617e+00,1.337749298839867818e+00
1.761182081237173796e+09,-2.825654530423385769e+00,2.089235009102288210e+00,1.150520959051068770e+00,1.330028560885883504e+00
1.761182081256098032e+09,-2.812861452986667565e+00,2.112489348137705836e+00,1.125579549504875043e+00,1.324433963536813197e+00
1.761182081277219296e+09,-2.799601212558715968e+00,2.135370068718779546e+00,1.102402421692139756e+00,1.320380009006608457e+00
1.761182081296007633e+09,-2.785854700408437967e+00,2.157922469239254237e+00,1.080292915841195356e+00,1.320840404084340225e+00
1.761182081316753149e+09,-2.771608967360656983e+00,2.180173426594695041e+00,1.058763651806905237e+00,1.321266611545033998e+00
1.761182081336304665e+09,-2.756875275786131674e+00,2.202114220394604249e+00,1.037529653571220400e+00,1.321661163431067987e+00
1.761182081357229948e+09,-2.741711873258586785e+00,2.223769828090832235e+00,1.017092355510622825e+00,1.322026412048899591e+00
1.761182081376003265e+09,-2.726132115015546198e+00,2.245200592881628321e+00,9.975934031130978541e-01,1.327481222690397811e+00
1.761182081396911621e+09,-2.710104739942207352e+00,2.266430386923701690e+00,9.785804687471109098e-01,1.332530901843980375e+00
1.761182081415939093e+09,-2.693633881953286124e+00,2.287441619673887150e+00,9.597879432333259464e-01,1.337205535766605502e+00
1.761182081436844349e+09,-2.676619409765895519e+00,2.308349701372791163e+00,9.411575383497425840e-01,1.358200037448363151e+00
1.761182081456215858e+09,-2.658969823800627186e+00,2.329256209529576349e+00,9.225640367954917043e-01,1.377635253125103265e+00
1.761182081477047682e+09,-2.640793430628483041e+00,2.350018233287089586e+00,9.037876718328401449e-01,1.381775130660234163e+00
1.761182081495928049e+09,-2.622177038297198948e+00,2.370520304821156721e+00,8.848123292256572237e-01,1.387496301971379742e+00
1.761182081517093658e+09,-2.603071825388402871e+00,2.390719156914398180e+00,8.650578547143025210e-01,1.392792549139903135e+00
1.761182081535957098e+09,-2.583454274844315002e+00,2.410564427326415071e+00,8.443364019107485463e-01,1.397695441800313132e+00
1.761182081556658745e+09,-2.563634046042951642e+00,2.429757127189279498e+00,8.228028070528659033e-01,1.363165725112954307e+00
1.761182081576076508e+09,-2.543604659845539739e+00,2.448307784677312693e+00,8.010589865434423196e-01,1.366872287985360979e+00
1.761182081596762419e+09,-2.523117130731248992e+00,2.466458966268847863e+00,7.794258970785983287e-01,1.370303564634464788e+00
1.761182081616307497e+09,-2.502527672216508403e+00,2.483908112550551994e+00,7.575573426849152581e-01,1.330720988408801597e+00
1.761182081636837244e+09,-2.481788961073418509e+00,2.500771666079349309e+00,7.365260196153398109e-01,1.342139116964299106e+00
1.761182081656177759e+09,-2.460569839791189484e+00,2.517385499289618078e+00,7.166792348051057582e-01,1.352709202553401102e+00
1.761182081677724600e+09,-2.438884046805279482e+00,2.533725760169578400e+00,6.973814461117695540e-01,1.362494238975675342e+00
1.761182081696582556e+09,-2.416682708379548128e+00,2.549818496672602741e+00,6.783437556586632278e-01,1.379372058755411912e+00
1.761182081716932297e+09,-2.393922422755836887e+00,2.565685649161081994e+00,6.593742408680802747e-01,1.394996339510595540e+00
1.761182081735867023e+09,-2.370741101611010482e+00,2.581221306489550393e+00,6.402624066040223383e-01,1.395607601998858582e+00
1.761182081756586790e+09,-2.347265483885807580e+00,2.596330310616935755e+00,6.209846976638199179e-01,1.396173459443210030e+00
1.761182081775964499e+09,-2.323392261381916235e+00,2.611003651357428179e+00,6.010229859357608673e-01,1.405979129540877226e+00
1.761182081797021866e+09,-2.299034597669684210e+00,2.625235898867209539e+00,5.801715245572578450e-01,1.415056518731006019e+00
1.761182081816733122e+09,-2.274505986016149617e+00,2.638921210691455688e+00,5.592586584381643577e-01,1.394849786715792073e+00
1.761182081837085962e+09,-2.250174514334025044e+00,2.651911707473982194e+00,5.387300302576213396e-01,1.364971520188384968e+00
1.761182081856179953e+09,-2.226056098770113234e+00,2.664206108195918521e+00,5.187274438849250879e-01,1.343321122790977595e+00
1.761182081876894951e+09,-2.202564445035767537e+00,2.675717232891801078e+00,5.000084695446258554e-01,1.276267588845216183e+00
1.761182081896044016e+09,-2.179618893177865946e+00,2.686471798671049793e+00,4.823569006348069621e-01,1.258779279211828417e+00
1.761182081916668892e+09,-2.157214528154269395e+00,2.696388849318387848e+00,4.643908652222418221e-01,1.194740456923509386e+00
1.761182081935957670e+09,-2.135610878098043841e+00,2.705395584839028533e+00,4.464942821821869523e-01,1.148336605178648107e+00
1.761182081957520247e+09,-2.114558212724770403e+00,2.713648261358711178e+00,4.291621074251270596e-01,1.114711397030631934e+00
1.761182081975932837e+09,-2.093576656029059624e+00,2.721372614591952122e+00,4.125957070016385564e-01,1.121071957480413550e+00
1.761182081996531725e+09,-2.072682641162005623e+00,2.728604718797709161e+00,3.963891678251506012e-01,1.091536408141480008e+00
1.761182082016525984e+09,-2.052124314560213492e+00,2.735299768074534121e+00,3.805594460645366217e-01,1.071044157315413692e+00
1.761182082036657333e+09,-2.031551376164979938e+00,2.741688180771066463e+00,3.660913984456688475e-01,1.083027869264324261e+00
1.761182082056636572e+09,-2.010673201157827439e+00,2.747864807755270089e+00,3.523307382506941643e-01,1.094121543958979981e+00
1.761182082076729059e+09,-1.989509147221498964e+00,2.753820963313262649e+00,3.388093031401420152e-01,1.104391277063027088e+00
